Time (s),Raw_Voltage (V),Filtered_Voltage (V)
0.0032858800000212796,0.0,-0.0024656237409551108
0.00800033899997743,0.0,-0.0006311548631757369
0.01600017700002354,0.006445410849164568,0.0005298997121105761
0.024000367999974515,0.0,-0.00026535679320384854
0.03200052199997572,0.003222705424582284,-0.001702952108670153
0.0400003969999716,0.0,-0.0028230187482399306
0.04800029199998335,0.0,-0.0037995620921062088
0.05600007500004267,0.0,-0.003740007562632119
0.06400004299996453,0.0,-0.003975521697390149
0.07200027099997897,0.0,-0.004973855105809729
0.08000044300001719,0.0,-0.003062694955676906
0.08800017099997604,0.006445410849164568,0.0002829041069316454
0.0960001949999878,0.003222705424582284,-0.0008910637778069431
0.10400045899996258,0.0,-0.004889428683638724
0.11200009399999544,0.0,-0.006057229828715766
0.12000009999997019,0.0,-0.0049826814458412035
0.12800004999996872,0.0,-0.005492893134882319
0.13600005499995405,0.0,-0.006987056138157998
0.14400017200000548,0.0,-0.0049422527723202575
0.15200032500001726,0.006445410849164568,-0.00044057463126172757
0.1600000529999761,0.006445410849164568,-0.0007326521142203519
0.16800002100001166,0.0,-0.00559485142547198
0.17600030400001287,0.0,-0.007934989473324884
0.1840001250000114,0.0,-0.007117996158076456
0.19200003799994647,0.0,-0.006981496276186913
0.20000017300003492,0.0,-0.007995297979656042
0.2080000480000308,0.0,-0.008250328525976534
0.216000312999995,0.0,-0.00694063098835728
0.22400004099995385,0.003222705424582284,-0.006369334432262907
0.2320003429999815,0.0,-0.007786374530907109
0.24000006999995094,0.0,-0.008645469720452187
0.2480002050000394,0.0,-0.009079706160632008
0.25600021100001413,0.0,-0.00979395895634914
0.2640001419999862,0.0,-0.0075533801695840605
0.27200014699997155,0.006445410849164568,-0.0051759465840516584
0.2800000969999701,0.0,-0.008271926260465245
0.28800001000001885,0.0,-0.0105385835909247
0.2960003670000333,0.003222705424582284,-0.006462674866737636
0.3040002249999816,0.006445410849164568,-0.0046666014810431925
0.3120001190000039,0.0,-0.009348639882104645
0.32000023600005534,0.0,-0.01181937686870613
0.32800035200000366,0.0,-0.010034721842913135
0.33600015399997574,0.0,-0.011102269680731493
0.34400002999996104,0.0,-0.01262670990353659
0.35200009100003626,0.0,-0.00833112538910078
0.36000030000002425,0.00966811627374685,-0.0055045201231372475
0.3680000460000201,0.0,-0.009485136357995997
0.3760002369999711,0.0,-0.0117072540534883
0.3840000750000172,0.003222705424582284,-0.010560328620304978
0.3920001730000422,0.0,-0.010912742029142528
0.4000003830000196,0.003222705424582284,-0.008657134723218432
0.4080001290000155,0.00966811627374685,-0.00466651488926632
0.4160001159999638,0.003222705424582284,-0.00754367876059535
0.4240000099999861,0.0,-0.013535885599146105
0.4320001080000111,0.0,-0.013598746569513194
0.44000005800000963,0.0,-0.010781144704117205
0.4480001560000346,0.006445410849164568,-0.010224737916250008
0.4560003090000464,0.0,-0.009106157871818784
0.4640002959999947,0.00966811627374685,-0.007095716072612578
0.47200026400003026,0.003222705424582284,-0.008739264457641182
0.4800000850000288,0.0,-0.01260706868959563
0.48800001600000087,0.003222705424582284,-0.013202004050389068
0.49600031800002853,0.0,-0.010088380089302696
0.5040003780000006,0.00966811627374685,-0.007379185335127946
0.5120001059999595,0.003222705424582284,-0.00835978475316157
0.5200003149999475,0.003222705424582284,-0.011734321773078822
0.528000153999983,0.0,-0.013733531470050056
0.5360000299999683,0.0,-0.013799357560334659
0.5440003310000066,0.0,-0.014076765726189539
0.5520000029999892,0.0,-0.014432185496501236
0.5600001200000406,0.0,-0.013163382173667517
0.5680001440000524,0.003222705424582284,-0.0119207124174612
0.5760000929999478,0.0,-0.013189126272824385
0.5840001909999728,0.0,-0.014574807871345068
0.592000363000011,0.0,-0.013847578489998567
0.6000001459999567,0.0,-0.013829368880899258
0.6080003739999711,0.0,-0.014761965388855925
0.6160002130000066,0.0,-0.012572119815670958
0.6240002550000554,0.006445410849164568,-0.008926888490737259
0.6320000010000513,0.003222705424582284,-0.009687729141336565
0.6400001729999758,0.0,-0.013675193291845614
0.6480001789999505,0.0,-0.014683182724770216
0.6560003509999888,0.0,-0.012135110731456927
0.6640000969999846,0.003222705424582284,-0.011372118611304419
0.67200010199997,0.0,-0.013199972056075406
0.6800001819999579,0.0,-0.01259834154142268
0.6880002240000067,0.003222705424582284,-0.010351872026126715
0.6960001370000555,0.003222705424582284,-0.010596454783097578
0.7040002349999668,0.0,-0.010493883727846376
0.7120000180000261,0.006445410849164568,-0.009015858304273748
0.7200003560000141,0.0,-0.010499234996884847
0.7280000470000232,0.0,-0.012923414294094271
0.7360000339999715,0.0,-0.012385008762851469
0.7440000210000335,0.0,-0.011484008634494348
0.7520000450000452,0.0,-0.011789282508499668
0.7600001609999936,0.0,-0.011575395968259301
0.7680002770000556,0.0,-0.011074315660873893
0.7760002459999669,0.0,-0.010978635669119831
0.784000084000013,0.0,-0.01074572936241831
0.7920001270000512,0.0,-0.010376867732447444
0.8000003729999889,0.0,-0.010139541854700253
0.8080000259999451,0.0,-0.009857166810199908
0.8160003100000495,0.0,-0.009516283456573404
0.8240002039999581,0.0,-0.00921785369109296
0.8320001539999566,0.0,-0.008884352046717848
0.8400003069999684,0.0,-0.008529481415512
0.8480003500000066,0.0,-0.008205696584732242
0.8560002250000025,0.0,-0.007814421132878632
0.8640003049999905,0.0,-0.007420883356959461
0.872000254999989,0.0,-0.007115176596000049
0.8800001299999849,0.0,-0.006643498190917994
0.8880001359999596,0.0,-0.006164874020382777
0.8960002339999846,0.0,-0.005986586932658112
0.9040001829999937,0.0,-0.0053836738920188445
0.9120001700000557,0.0,-0.0046536107585399165
0.9200001760000305,0.0,-0.004995260782987887
0.9280000329999893,0.0,-0.003895779187590796
0.9360001119999879,0.003222705424582284,0.0003213443945486558
0.9440003580000393,0.006445410849164568,0.002017595820117338
0.9520000859999982,0.0,-0.0012371292344000736
0.9600003130000232,0.0,-0.002896559977360298
0.9680000600000085,0.0,-0.0012676040773599623
0.9760003059999462,0.0,-0.0010334872099626079
0.984000329999958,0.0,-0.0010082630083532366
0.9920000570000411,0.0,0.0016164665041727287
1.0000001920000159,0.006445410849164568,0.0041041251651193714
1.0080000489999748,0.0,0.004900599306729256
1.0160002579999627,0.006445410849164568,0.004886951082007412
1.0240002640000512,0.0,0.003934611169684887
1.032000139000047,0.0,0.0033968159972310014
1.0400001079999583,0.003222705424582284,0.0046911272379451235
1.0480001129999437,0.0,0.00644428292993584
1.0560000259999924,0.003222705424582284,0.00652802567917271
1.0640000680000412,0.0,0.005395095931497404
1.0720001290000027,0.0,0.0066057092577626675
1.080000172000041,0.003222705424582284,0.010006345663204864
1.0880001399999628,0.006445410849164568,0.011520095338123084
1.0960003669999878,0.0,0.012069048180843327
1.1040000949999467,0.00966811627374685,0.013395197631090015
1.1120001369999954,0.0,0.013050097940660432
1.1200001239999438,0.003222705424582284,0.011266394949018106
1.128000074000056,0.0,0.010614741543993354
1.1360001350000175,0.0,0.011979211346765526
1.1440000479999526,0.003222705424582284,0.014654296205623705
1.1520001090000278,0.003222705424582284,0.015618095402568297
1.1600003360000528,0.0,0.013962963722779203
1.1680002120000381,0.0,0.013366853120000726
1.1760001059999468,0.0,0.014894246717421846
1.184000277999985,0.0,0.015629038736854575
1.1920000059999438,0.0,0.01557050939313961
1.2000002329999688,0.0,0.016974970430856967
1.2080003680000573,0.0,0.01836532944538536
1.2160001890000558,0.003222705424582284,0.018947075256376594
1.2240000640000517,0.0,0.02235594245253983
1.2320002359999762,0.00966811627374685,0.026240976986804804
1.240000259999988,0.003222705424582284,0.024615682078863353
1.2480001540000103,0.0,0.02190002304904261
1.2560003449999613,0.003222705424582284,0.023078272019643457
1.264000368999973,0.0,0.023703602096774107
1.2720001520000324,0.0,0.022702401299812637
1.2800001570000177,0.0,0.023480058891376738
1.2880001629999924,0.0,0.024702479721426012
1.2960003350000306,0.0,0.025014858420332162
1.3040002850000292,0.0,0.025753903207994235
1.3120000860000118,0.0,0.026461381589468674
1.3200002209999866,0.0,0.026957438863422337
1.3280002449999984,0.0,0.02801581715910167
1.3360000650000075,0.0,0.028285884415416213
1.3440000519999558,0.0,0.028386708653565552
1.3520001870000442,0.0,0.031307551958868175
1.3600002289999793,0.006445410849164568,0.03431383016094391
1.3680001610000545,0.0,0.033380469717180505
1.376000351000016,0.003222705424582284,0.03238608589141261
1.3840003010000146,0.0,0.03407923948514341
1.392000195000037,0.003222705424582284,0.03429543980776037
1.4000001639999482,0.0,0.033452030350767506
1.4080002990000366,0.0,0.03533679250078952
1.4160000629999558,0.006445410849164568,0.03741035060913655
1.4240001980000443,0.0,0.03829687348708547
1.4320001849999926,0.006445410849164568,0.03921629283565752
1.4400003570000308,0.0,0.03699452874444727
1.4480000849999897,0.0,0.034806392804456236
1.4560003310000411,0.0,0.03933465425881561
1.4640002620000132,0.00966811627374685,0.04299443575264166
1.472000137000009,0.0,0.040349747744603884
1.4800002539999468,0.003222705424582284,0.04047272954277398
1.488000073999956,0.006445410849164568,0.043128802327908104
1.4960001529999545,0.0,0.040543526639100574
1.504000288000043,0.0,0.037673554272718804
1.5120000709999886,0.0,0.03924240476257368
1.52000000299995,0.0,0.039884333145270415
1.5280003599999645,0.0,0.038977265097553525
1.5360002910000503,0.0,0.04063461286387367
1.5440003700000489,0.003222705424582284,0.04246095357460923
1.552000301000021,0.0,0.040984837627660996
1.5600000289999798,0.0,0.03960191869703591
1.5680002560000048,0.0,0.04132504432392732
1.5760001510000166,0.003222705424582284,0.04276025985772422
1.584000340999978,0.0,0.04143952738984872
1.5920001240000374,0.0,0.04012185118570927
1.6000000550000095,0.0,0.04055460345053714
1.608000115999971,0.0,0.04082727056148121
1.6160001580000198,0.0,0.04012146827840942
1.6240002929999946,0.0,0.04023581198937554
1.6320003170000064,0.0,0.04070963480751006
1.6400001189999784,0.0,0.03930964062100253
1.6480001610000272,0.0,0.03952258241976635
1.6560000739999623,0.003222705424582284,0.04433515326082985
1.664000116000011,0.00966811627374685,0.046145110903212216
1.6720001029999594,0.0,0.04110960581295367
1.6800000900000214,0.0,0.03746355462078042
1.6880003359999591,0.0,0.03778936089864999
1.696000210999955,0.0,0.03774916954219063
1.7040001049999773,0.0,0.03735168074884441
1.7120001849999653,0.0,0.036095888853493456
1.7200001899999506,0.0,0.03486897501776031
1.728000083999973,0.0,0.038049341503378464
1.7360001450000482,0.00966811627374685,0.040512246770722814
1.7440003169999727,0.0,0.036343926803724794
1.752000192999958,0.0,0.032435348733570006
1.7600003649999962,0.0,0.03169972416345499
1.768000110999992,0.0,0.030786591683961077
1.7760002830000303,0.0,0.032828541662275855
1.7840002880000156,0.00966811627374685,0.03543022966517215
1.7920001449999745,0.0,0.031322673320074525
1.80000011300001,0.0,0.026039040251609285
1.8080002850000483,0.0,0.02590302523874932
1.8160002160000204,0.0,0.02572295630917353
1.824000147999982,0.0,0.023230780374500194
1.832000207999954,0.0,0.022282553080114665
1.8400001029999657,0.0,0.02215929849597959
1.8480002190000278,0.003222705424582284,0.020917450733253025
1.8560002799999893,0.0,0.02083776333284345
1.8640001369999482,0.006445410849164568,0.02081557431093594
1.8720000130000471,0.0,0.01681084997459864
1.8800000920000457,0.0,0.012577712182359509
1.8880003379999835,0.0,0.012784044128103533
1.8960003250000454,0.003222705424582284,0.012468614085010684
1.904000275000044,0.0,0.008850117032049337
1.912000335000016,0.0,0.00696049063426553
1.9200003219999644,0.003222705424582284,0.006680409585698505
1.9280000310000105,0.0,0.003806295699341502
1.936000110000009,0.0,0.00010208029830439046
1.944000318999997,0.0,-0.0016367387591119794
1.9520003249999718,0.0,-0.0031408142244987772
1.9600000890000047,0.0,-0.0060002966561625
1.9680000580000296,0.0,-0.008549306547728518
1.9760001370000282,0.0,-0.009330499348863491
1.98400010499995,0.003222705424582284,-0.010751385518745788
1.9920002589999513,0.0,-0.014544943130698745
2.0000001710000106,0.0,-0.01789084715867508
2.008000121000009,0.0,-0.02027337144076971
2.0160000150000315,0.0,-0.023527030806666415
2.024000075999993,0.0,-0.024643654867441894
2.0320002290000048,0.006445410849164568,-0.022885572163391838
2.040000346000056,0.006445410849164568,-0.024564900119993283
2.048000313999978,0.003222705424582284,-0.03051747466683261
2.0560000970000374,0.003222705424582284,-0.03459968825734375
2.064000268999962,0.003222705424582284,-0.03594104862445667
2.0720002189999605,0.006445410849164568,-0.03802895381592696
2.080000020000057,0.003222705424582284,-0.041287214942993825
2.0880002659999946,0.006445410849164568,-0.0451984701733728
2.096000049000054,0.0,-0.05080241802154796
2.1040000919999784,0.0,-0.0571958488973827
2.112000170999977,0.0,-0.05983639028952496
2.1200002880000284,0.003222705424582284,-0.057847209939651194
2.1280000340000242,0.00966811627374685,-0.05932131664362962
2.1360001499999726,0.0,-0.06789466328765012
2.144000043999995,0.0,-0.07473709763726144
2.152000326999996,0.0,-0.07692833935953468
2.160000018000005,0.0,-0.08115558920841301
2.1680000970000037,0.0,-0.08540711970274413
2.1760000650000393,0.0,-0.08739399017889035
2.1840002190000405,0.0,-0.09381812464580593
2.1920000759999994,0.0,-0.09830806575954923
2.200000210999974,0.0,-0.095226992363653
2.208000141999946,0.00966811627374685,-0.10149094580613914
2.2160002770000347,0.0,-0.10834078637680379
2.224000337999996,0.012890821698329136,-0.0915122947147478
2.2320001580000053,0.048340581368734266,-0.08396835588771119
2.2400000520000276,0.0,-0.10977991021153002
2.248000335000029,0.003222705424582284,-0.12716662024578548
2.256000340000014,0.003222705424582284,-0.1280831801492785
2.2640003269999625,0.003222705424582284,-0.13352036864656927
2.2720003319999478,0.006445410849164568,-0.12983020519850635
2.2800002819999463,0.00966811627374685,-0.12789163528403774
2.2880002870000453,0.05483634699015793,-0.1270866641136768
2.2960000890000174,0.0,-0.09332825948919184
2.3040003160000424,0.1418997482261387,-0.08058887944831197
2.312000340000054,0.012890821698329136,-0.12312226182310945
2.3200002529999892,0.0,-0.12780883501959436
2.328000221000025,0.20967727168688485,-0.07120148725914889
2.33600026299996,0.0,-0.03804995188618847
2.3440002129999584,0.22901350423437858,-0.07096652265941064
2.352000070000031,0.032227054245822846,-0.11337517150980686
2.3600001129999555,0.06772716868848706,-0.06908543769571644
2.3680001550000043,0.3612954909590295,0.020184824987425305
2.376000011999963,0.0193362325474937,0.001453303590266769
2.3840002580000146,0.2741817349507897,-0.10144528409696735
2.392000023000037,0.032227054245822846,-0.10058198646606556
2.4000001949999614,0.16450904097047378,0.0014938894187765768
2.408000162999997,0.47096818493934534,0.046708002872327674
2.4160001129999955,0.016113527122911423,0.0690709481773174
2.424000191999994,0.6096452277409018,0.11596251199387944
2.432000308000056,0.18384527351796748,0.07142448790236088
2.440000146999978,0.1806225680933852,-0.012487790507594215
2.4480000600000267,0.4999725337605859,0.0339202832300799
2.456000009000036,0.09673151750972761,0.13110931397329423
2.4640000699999973,0.5806408789196612,0.06609168749382553
2.4720000569999456,0.09028610666056305,-0.07459949382099688
2.4800002660000473,0.15484092469672694,-0.032945541545404494
2.4880000299999665,0.5612542915999084,0.05677775350337847
2.496000368999944,0.00966811627374685,-0.028185428749128133
2.504000040000051,0.322572671091783,-0.13593386129721555
2.5120001569999886,0.051613641565575644,-0.19328759955896882
2.5200002550000136,0.0,-0.2735041885625646
2.528000037999959,0.06450446326390478,-0.29756829032267745
2.5360003020000477,0.0,-0.2726014123349403
2.5440003259999457,0.0612817578393225,-0.283561031905641
2.552000274999955,0.00966811627374685,-0.30290032884659956
2.56000033600003,0.0,-0.32720924231116433
2.5680003410000154,0.051613641565575644,-0.3265089479466546
2.5760002539999505,0.006445410849164568,-0.25613851116365577
2.5840002590000495,0.19029068436713206,-0.24634096155013813
2.5920000610000216,0.00966811627374685,-0.31616388017583513
2.6000001959999963,0.0,-0.2796377012616088
2.6080001450000054,0.39029983978027005,-0.16791663379183547
2.6160000209999907,0.00966811627374685,-0.12267504428298442
2.6240001559999655,0.47096818493934534,-0.10865079250188547
2.632000253000001,0.20967727168688485,-0.0880265956835235
2.6400002029999996,0.23545891508354314,-0.09772804370584418
2.648000189999948,0.43869077592126343,-0.13557990331638878
2.6560001579999835,0.045117875944151974,-0.12575672478024183
2.6640000889999556,0.5741954680704967,-0.035747857162861496
2.6720001869999805,0.34835431448844123,0.04090598105209078
2.6800001179999526,0.4677454795147631,0.06339354120227318
2.6880001419999644,0.6548134584573129,0.10402871608385576
2.6960000169999603,0.44835889219501024,0.21276740848107617
2.7040000219999456,1.0516090638590065,0.3998592885427872
2.712000157000034,0.8354863813229572,0.5626011895134932
2.720000181000046,1.0257770656900893,0.5191461233511961
2.7280001310000443,0.967718013275349,0.4076441407653868
2.736000284000056,0.7290363927672235,0.5239018964856842
2.744000086000028,1.4225726710917828,0.6501298156302376
2.7520003309999765,0.7612634470130464,0.5021496376656555
2.760000151999975,0.8612680247196154,0.3675941506052059
2.7680001200000106,1.122558937972076,0.45599078418825845
2.7760002549999854,0.7483726253147173,0.5486317972494313
2.784000297000034,1.2290089265278095,0.4742497754125628
2.7920003760000327,0.7290363927672235,0.34855006706650743
2.8000003260000312,0.9128816662851911,0.47043789484248827
2.80800018299999,1.558077363241016,0.8322407457299699
2.816000336000002,1.1483909361409934,0.9221988815315437
2.8240002860000004,1.2322316319523918,0.42813393516753717
2.832000346999962,0.09350881208514533,-0.22977936402548535
2.8400002590000213,0.22901350423437858,-0.3946953307436494
2.848000041999967,0.4967498283360037,-0.06362619561712216
2.8560000840000157,0.577418173495079,0.14792057306774534
2.864000014999988,0.722590981918059,-0.0013398378801636399
2.8720000209999625,0.20645456626230257,-0.16209923106089325
2.880000211000038,0.45480430304417485,-0.23126889126057315
2.8880003640000496,0.15484092469672694,-0.39050946507534445
2.896000314000048,0.006445410849164568,-0.4871226210117998
2.9040002640000466,0.2741817349507897,-0.3978359473093618
2.9120002500000055,0.15484092469672694,-0.38770201611306065
2.9200002930000437,0.006445410849164568,-0.5111452748654806
2.928000353000016,0.23545891508354314,-0.5142663270643142
2.936000322000041,0.00966811627374685,-0.37702128835744364
2.944000327000026,0.47741359578850995,-0.3095690109094053
2.9520003139999744,0.1386770428015564,-0.3603001105115827
2.9600003739999465,0.19673609521629662,-0.3927361698640443
2.9680003050000323,0.3999679560540169,-0.34847138892961765
2.976000051000028,0.12900892652780957,-0.28760359684475123
2.9840002229999527,0.5096406500343328,-0.29921327528074304
2.9920001540000385,0.10967269398031586,-0.4139657338484439
3.000000325999963,0.09995422293430992,-0.5129544093584759
3.0080001830000356,0.26451361867704276,-0.497461304015382
3.0160003739999866,0.006445410849164568,-0.44037128980053786
3.0240000090000194,0.40641336690318147,-0.4335328378693115
3.032000198999981,0.0193362325474937,-0.48555643151445194
3.0400003519999927,0.1386770428015564,-0.5548146511624416
3.048000043000002,0.17095445181963836,-0.5621889457352184
3.056000102999974,0.0,-0.47674539988702047
3.0640003490000254,0.49030441748683906,-0.40644542186964266
3.0720000950000212,0.032227054245822846,-0.42225088502069114
3.08000004500002,0.36451819638361177,-0.4338041102458158
3.0880000690000315,0.26451361867704276,-0.3922265094499331
3.0960000549999904,0.2612909132524605,-0.33942980642025294
3.1040001349999784,0.5354726482032501,-0.2656667013880075
3.1120000099999743,0.4322453650720988,-0.15741847732590214
3.1200001270000257,0.5967544060425726,-0.09542285018806632
3.1280002239999476,0.7160952162966353,-0.09328928391333341
3.1360003040000493,0.47741359578850995,0.0006269579817265725
3.144000290000008,1.1193362325474936,0.18183195546773168
3.1520001100000172,0.7967635614557106,0.26853245402692943
3.1600002820000554,1.0289997711146714,0.2806983347366355
3.168000065000001,1.122558937972076,0.330545799758415
3.17600010700005,0.9096589608606088,0.3713610956019159
3.184000130999948,1.24517280842298,0.35277590497311406
3.192000192000023,0.9483817807278553,0.34450844559771404
3.2000001229999953,1.090331883726253,0.3910265637599095
3.2080002210000202,1.30323186083772,0.42536172760361524
3.216000132999966,0.8806546120393682,0.41548461726887753
3.2240003790000173,1.3838498512245363,0.38561954304808727
3.232000274000029,0.8548226138704509,0.32931384002799474
3.240000094000038,1.0806134126802471,0.2900802766299765
3.2480002649999733,1.1806179903868161,0.3488489039180561
3.256000159999985,0.945159075303273,0.4433487963234167
3.264000276000047,1.4257953765163653,0.4136456086725459
3.272000299999945,0.8483772030212863,0.3217612704177408
3.280000341999994,1.1419455252918287,0.34801382726487656
3.2880000879999898,1.2645090409704736,0.40643712923752306
3.296000315000015,0.9193270771343557,0.404394748400748
3.304000301999963,1.4257953765163653,0.4473092430623102
3.3120002140000224,1.112890821698329,0.5169500070344532
3.3200000529999443,1.3096772716868847,0.5478658847812442
3.3280000580000433,1.4935225452048524,0.6193700438754643
3.336000025999965,1.2354543373769742,0.7180636534162719
3.34400012399999,1.7258091096360721,0.7029869915549486
3.3520001849999517,1.1355001144426642,0.6043904324139252
3.3600000049999608,1.4193499656672006,0.5762843984272037
3.3680002319999858,1.458072785534447,0.6233233349412599
3.376000051999995,1.190336461432822,0.6583545843274522
3.384000316999959,1.6741954680704967,0.633834039440599
3.392000191999955,1.0806134126802471,0.5551659898248748
3.40000012400003,1.3064545662623026,0.46421777840113854
3.408000351000055,1.2806225680933851,0.4181106112885978
3.416000134000001,0.9838818951705195,0.4729025527182251
3.424000064999973,1.5806363012130922,0.5327663668664445
3.432000126000048,1.0741680018310824,0.5225435143508703
3.44000005700002,1.4386861982146943,0.6072302125715048
3.448000302999958,1.4645181963836118,0.6454911780650642
3.4560001040000543,0.8741588464179446,0.2435908952269741
3.4640001279999524,0.6354772259098191,-0.28666535081413314
3.472000077999951,0.32901808194094756,-0.29028401562785316
3.480000323000013,0.9225497825589379,0.08339896758176613
3.488000366000051,1.0741680018310824,0.2696893276305176
3.4960000930000206,0.8225452048523689,0.21840331069869579
3.5040003569999953,1.122558937972076,0.14020093149870813
3.512000381000007,0.6742000457770656,0.08799401568251905
3.5200002750000294,0.8838773174639505,0.0732374842371247
3.5280001879999645,0.9806591897459372,0.08948483510575117
3.53600019299995,0.5677500572213321,0.07658307409836747
3.544000364999988,1.0967772945754177,0.006866203505928786
3.5520003330000236,0.4967498283360037,-0.013257305019160462
3.560000059999993,0.9128816662851911,0.06759732750541801
3.568000084000005,0.9322682536049439,0.05615936718832047
3.5760002920000034,0.46124971389333946,-0.06248916389358836
3.5840000570000257,0.9516044861524375,-0.06388037362370363
3.5920003769999767,0.5870862897688258,-0.011538611385259037
3.600000345000012,0.7160952162966353,-0.06583306075303628
3.6080002759999843,0.8064316777294576,-0.08994708417706848
3.61600015099998,0.5193591210803387,0.013171926858823416
3.624000045999992,1.1290043488212407,0.06507515098851309
3.632000291000054,0.47741359578850995,-0.035597334544390166
3.6400000559999626,0.7032043945983063,-0.1532148004787512
3.6480002089999743,0.7096498054474707,-0.1558947499266572
3.6560001029999967,0.3870771343556878,-0.09277485342024193
3.6640003119999847,0.967718013275349,-0.1361803408867424
3.672000206000007,0.2709590295262074,-0.22645342536611868
3.6800001560000055,0.6709773403524834,-0.1481031622500626
3.6880001050000146,0.8580453192950331,-0.056771777618939194
3.6960003140000026,0.3257953765163653,-0.13541764067962156
3.704000318999988,0.8709361409933623,-0.1940332552013844
3.71200024999996,0.37740901808194094,-0.16273907406148314
3.720000237000022,0.6483680476081483,-0.17052574397020948
3.728000112000018,0.6580361638818951,-0.19519662648553868
3.736000284000056,0.3193499656672007,-0.20526781763221125
3.744000307999954,0.767708857862211,-0.27247247968038474
3.7520003309999765,0.16773174639505606,-0.34274267631226485
3.7600001509999856,0.5322499427786679,-0.32285732685842433
3.7680001380000476,0.5483634699015794,-0.2817896320913219
3.776000199000009,0.2515724422064546,-0.277573205457646
3.784000184999968,0.6935362783245593,-0.31998132323711403
3.792000282999993,0.19029068436713206,-0.37080753893164237
3.800000157999989,0.5064179446097505,-0.29013118211546773
3.8080001079999874,0.667704280155642,-0.1715691799617686
3.816000168999949,0.35802243076218815,-0.21599258638217625
3.8240001000000348,0.7096498054474707,-0.23792777315909575
3.8320001790000333,0.46452277409018083,-0.10972930164793993
3.8400002949999816,0.7354818036163882,-0.09994178262848472
3.8480003370000304,0.612867933165484,-0.19511843411890675
3.8560003239999787,0.37418631265735863,-0.13573404260230304
3.8640000699999746,0.9967727168688487,-0.09877974364446832
3.8720001120000234,0.18706797894254978,-0.23437452706274803
3.880000301999985,0.62258640421149,-0.27912126411068366
3.8880003069999702,0.6290318150606546,-0.1935776152854908
3.8960001460000058,0.2999633783474479,-0.16916364930210398
3.904000150999991,0.8935454337376975,-0.21216588041988976
3.9120000269999764,0.17417715724422062,-0.2589723627435345
3.9200002540000014,0.612867933165484,-0.2794978433817411
3.9280002589999867,0.5741954680704967,-0.2370680660057336
3.9360000980000223,0.32901808194094756,-0.15651052222853762
3.944000009999968,0.945159075303273,-0.14644665456556671
3.95200012600003,0.2515724422064546,-0.19672747334026766
3.9600001500000417,0.6774227512016479,-0.18454756595433042
3.9680000250000376,0.7258136873426413,-0.1221102591457917
3.976000067999962,0.40641336690318147,-0.06538908793328281
3.9840001649999977,0.9773861295490959,-0.07738750368636474
3.99200005900002,0.3161272602426184,-0.21216176261580563
4.0000000090000185,0.49352712291142137,-0.29221093104552504
4.00800016200003,0.667704280155642,-0.20844987573514548
4.016000333999955,0.34190890363927673,-0.153734087144624
4.024000097999988,0.8290409704737925,-0.2021972331189981
4.0320000110000365,0.2612909132524605,-0.24212183054079256
4.040000090000035,0.5870862897688258,-0.2815341122195792
4.048000057999957,0.45158159761959255,-0.335465795015212
4.056000229999995,0.2419043259327077,-0.30917479495730626
4.064000254000007,0.7709315632867934,-0.25098629354149155
4.072000092000053,0.222568093385214,-0.28606966661945166
4.080000283000004,0.512863355458915,-0.33059538813639816
4.08800019499995,0.6515907530327306,-0.19677636672289653
4.096000292999975,0.5644769970244907,0.07385412404264323
4.104000150000047,1.112890821698329,0.05726549098776864
4.112000061999993,0.10322728313115129,-0.4309616615763117
4.120000030000028,0.0,-0.796255140527484
4.128000239000016,0.29351796749828335,-0.5941114530218993
4.136000095999975,0.2419043259327077,-0.2471086761581778
4.144000009000024,0.9064362554360265,-0.16852584114871705
4.152000236000049,0.2967406729228656,-0.17626376308425107
4.160000112000034,0.8032089723048752,-0.10648345539305452
4.168000006000057,0.7128725108720531,-0.07922753667027897
4.176000326000008,0.47096818493934534,-0.08353422827478098
4.184000164000054,1.009663538567178,-0.04365435155730793
4.192000095000026,0.45480430304417485,-0.03898261019908644
4.200000230000001,0.8322636758983748,-0.08231558704108333
4.208000068000047,0.6967589837491417,-0.07599166685160508
4.216000054999995,0.6160906385900664,-0.0013425906700958168
4.22400028200002,1.0419409475852597,0.054647942462412016
4.232000306000032,0.6160906385900664,0.039746057064631246
4.2400003300000435,0.8580453192950331,0.009883234457053941
4.2480000379999865,0.8871000228885328,0.028783533332934347
4.256000043999961,0.6354772259098191,0.09510955792809361
4.264000196999973,1.2354543373769742,0.15450291388234852
4.272000313000035,0.6967589837491417,0.1795627297076215
4.280000169999994,1.0516090638590065,0.1654777109632134
4.288000378999982,0.9838818951705195,0.09936801390018765
4.296000309999954,0.5677500572213321,0.06978671625650253
4.304000037000037,1.2773998626688028,0.12288979753320331
4.312000191000038,0.6096452277409018,0.1483225546589815
4.320000270000037,1.1,0.13186682432266753
4.328000311999972,0.9612726024261845,0.15012024671477756
4.336000242999944,0.7548180361638819,0.16627678262340634
4.34400021099998,1.2193408102540628,0.10307716013629095
4.352000068000052,0.47741359578850995,0.005571345579038892
4.360000369999966,0.9903273060196841,-0.03016373810818956
4.368000189999975,0.7838727397573815,0.02413456449813929
4.376000064999971,0.7935408560311283,0.1164648703079522
4.384000052000033,1.1064454108491646,0.08653589895860589
4.392000352999958,0.5806408789196612,-0.05953992954018602
4.400000025000054,0.7870954451819637,-0.05101958335285065
4.408000308000055,1.058054474708171,0.09597509447550236
4.416000387000054,0.6548134584573129,0.11627567345414083
4.424000095999986,1.2193408102540628,0.06849412673193099
4.432000342000038,0.6515907530327306,0.11934947880666677
4.440000105999957,1.1193362325474936,0.1335069839724139
4.448000184999955,0.8806546120393682,0.02424641880131872
4.456000134999954,0.612867933165484,-0.005677859055034139
4.464000325000029,1.2290089265278095,0.08233388739139401
4.472000236999975,0.6419226367589836,0.09280826004021105
4.480000001999997,0.9806591897459372,-0.0016736396662909107
4.488000006999982,0.8354863813229572,-0.06458876001225747
4.496000159999994,0.5999771114671549,-0.006100786367096055
4.504000202000043,1.2645090409704736,0.0900158248077851
4.5120001520000415,0.62258640421149,0.06418312230063938
4.520000305000053,0.9612726024261845,-0.037572744410080794
4.528000253999949,0.8871000228885328,-0.03209838582662135
4.536000185000034,0.6709773403524834,0.07574499090565688
4.5440001160000065,1.3484000915541312,0.10747823047167022
4.552000102999955,0.5709727626459143,0.056224275242017806
4.56000007099999,1.0967772945754177,0.05446019788716728
4.568000205999965,1.0709452964065003,0.11443762378613097
4.576000006999948,0.7612634470130464,0.20820509959373093
4.584000252999999,1.5484092469672694,0.23814931408144854
4.592000221000035,0.6160906385900664,0.11616727977634944
4.60000035500002,1.0967772945754177,0.015997345676154795
4.608000285999992,0.9903273060196841,0.07170984368995056
4.616000273000054,0.8322636758983748,0.1637230753321963
4.624000204000026,1.3774044403753718,0.1751839013364738
4.632000339000001,0.7258136873426413,0.10675555886596703
4.640000103000034,1.0741680018310824,0.0359766413094823
4.648000089999982,1.0193316548409246,0.06253157056264105
4.656000353999957,0.8580453192950331,0.18881837603675689
4.664000321999993,1.5096864271000228,0.26740666904988186
4.6720001789999515,0.8258182650492103,0.220006226449524
4.68000025799995,1.2096726939803157,0.1329899505793074
4.688000206999959,1.058054474708171,0.10766866140988395
4.696000174999995,0.9967727168688487,0.2665603200854834
4.70400014300003,1.6838635843442435,0.5083469123571597
4.712000314999955,1.1161135271229115,0.3961356714666139
4.720000060999951,0.9128816662851911,-0.10786344846689622
4.728000028999986,0.5838635843442436,-0.4108634292197629
4.736000330000024,0.5193591210803387,-0.21064387460205175
4.7440001319999965,1.335458915083543,0.09917442662872683
4.752000321999958,0.8258182650492103,0.16958470341124518
4.76000030900002,1.2354543373769742,0.11784185905150525
4.7680000540000265,1.090331883726253,0.13086944351510632
4.776000208000028,0.9548271915770199,0.19350494253509076
4.784000287000026,1.4419089036392767,0.18584940134531636
4.792000366000025,0.7644861524376287,0.0991720951203167
4.800000092999994,1.1838406958113985,0.054725157733809766
4.808000135000043,1.077390707255665,0.08226259663027069
4.8160003250000045,0.8483772030212863,0.10758302179378697
4.824000016000014,1.409681849393454,0.09397649898654165
4.832000113000049,0.7193179217212177,0.07904858126332134
4.840000322000037,1.225786221103227,0.059720235492345605
4.84800003099997,1.0193316548409246,0.010850990387397848
4.856000203000008,0.8032089723048752,0.042951178823381266
4.864000114999953,1.4129045548180361,0.12499610215056399
4.872000102000015,0.8096543831540398,0.0641086046107843
4.88000036599999,1.045163653009842,-0.0345911794179662
4.8880003709999755,1.0644998855573358,-0.014293764056108382
4.896000060999995,0.7935408560311283,0.01238603382233517
4.904000103000044,1.2709544518196383,-0.004162980702706737
4.912000256000056,0.7322590981918059,-0.01942151505048655
4.92000029899998,1.0516090638590065,-0.09356192281592488
4.928000303999966,0.8709361409933623,-0.17661552824253535
4.936000012000022,0.6419226367589836,-0.13909826967540675
4.94400022100001,1.2516182192721446,-0.11056483784063625
4.952000022999982,0.4999725337605859,-0.18225248087410298
4.960000120000018,1.0193316548409246,-0.1877104155929015
4.96800027300003,0.9193270771343557,-0.12393212875034862
4.9760001119999515,0.7096498054474707,-0.10733458581252187
4.984000098000024,1.2161181048294805,-0.11160610725690641
4.992000213999972,0.6290318150606546,-0.11858718692359488
5.000000071000045,1.0483863584344244,-0.147215524471745
5.008000168999956,0.8967681391622796,-0.14433949210521368
5.016000100000042,0.799986266880293,-0.06291555600680224
5.02400021599999,1.322568093385214,0.005370717042761715
5.032000276999952,0.7258136873426413,-0.027016832498779182
5.040000170999974,1.2032272831311512,-0.04246977933367076
5.0480001759999595,1.0483863584344244,0.04819226380595962
5.056000218000008,0.9773861295490959,0.06832139450586153
5.064000316000033,1.2773998626688028,-0.06079617941996376
5.072000339000056,0.6515907530327306,-0.07103403791894182
5.080000380999991,1.3484000915541312,0.0692408782391836
5.088000146000013,1.1,0.053461026006286876
5.096000335999975,0.8096543831540398,-0.03674989589727515
5.104000174000021,1.4419089036392767,0.041412370314957946
5.112000013000056,0.86771343556878,0.13345784407044184
5.120000147000042,1.367736324101625,0.10684958248358746
5.128000244999953,1.15805905241474,0.08826142209901428
5.136000157000012,0.9806591897459372,0.1181827850776247
5.144000311000013,1.5290226596475165,0.1141402911825515
5.152000167999972,0.7935408560311283,0.08609986877489553
5.160000116999981,1.3967910276951248,0.07711641154714112
5.168000344000006,1.154836346990158,0.10478956858779379
5.176000348999992,1.0709452964065003,0.20239623588811548
5.184000224999977,1.6774181734950788,0.24628387928336207
5.192000229999962,0.8644907301441976,0.12556450989691503
5.200000346000024,1.2645090409704736,-0.0027738493160734835
5.208000370000036,1.1032227054245822,-0.020849734612401728
5.216000245000032,0.877431906614786,0.030816589379920108
5.224000250000017,1.4902998397802698,0.07255069098797515
5.23200014400004,0.8160997940032044,0.021896922397545406
5.240000297000051,1.1677271686884871,-0.07046645474926665
5.2480002280000235,1.058054474708171,-0.0759208209518597
5.256000288999985,0.8871000228885328,0.010861689198541292
5.264000219999957,1.4612954909590294,0.06190179518243853
5.272000187999993,0.8160997940032044,0.007026418413184244
5.280000156000028,1.190336461432822,-0.0625881015834231
5.288000179000051,1.0644998855573358,-0.06677038822200093
5.2960000360000095,0.8515999084458686,-0.011968694283721491
5.304000264000024,1.6032455939574273,0.1312201764179294
5.312000343000022,1.022554360265507,0.3163653772663189
5.320000310999944,1.5806363012130922,0.21941625735319603
5.328000094000004,0.8225452048523689,-0.2696474495832137
5.336000321000029,0.21934538796063172,-0.6226711586896632
5.344000326000014,1.0354955367360952,-0.4958949055772107
5.352000052999983,0.46452277409018083,-0.2090706832488955
5.360000131999982,1.3322362096589608,-0.049835848826456655
5.368000026000004,1.090331883726253,0.024514052168165722
5.376000328000032,0.9967727168688487,0.08218132422070715
5.384000369999967,1.5129091325246051,0.07869606858303733
5.392000115999963,0.8128770885786221,0.026482456793563737
5.400000028000022,1.3096772716868847,0.01958410258366666
5.408000107000021,1.15805905241474,0.030377390195379578
5.4160001310000325,0.9548271915770199,0.04351115762665373
5.424000210000031,1.5032410162508583,0.10697893611130264
5.432000104000053,0.9612726024261845,0.1207178845412077
5.440000387000055,1.3000091554131379,0.03149121359789622
5.448000188000037,1.122558937972076,0.003058570024138752
5.456000212000049,1.0161089494163424,0.0911057233031121
5.464000346000034,1.5516319523918516,0.13218539634680446
5.4720001660000435,0.8838773174639505,0.09815201888683647
5.480000133999965,1.4193499656672006,0.08497390477432393
5.488000008999961,1.125781643396658,0.05970449903983377
5.496000310999989,1.01288624399176,0.032887390895451576
5.5040001300000085,1.4161272602426183,0.06655753263300762
5.512000358000023,0.9612726024261845,0.09216356462811523
5.520000029000016,1.3484000915541312,0.08360780556118066
5.528000089999978,1.2161181048294805,0.10724148641964265
5.53600007600005,1.0741680018310824,0.1248585083179604
5.544000302999962,1.4612954909590294,0.06264935130276744
5.552000012000008,0.7806500343327992,-0.011625944529314931
5.560000349999996,1.3096772716868847,-0.03371157644076192
5.568000021999978,1.0289997711146714,-0.03365924834206513
5.576000249000003,0.9290455481803617,-0.02186690735117717
5.584000291000052,1.3645136186770428,-0.04677071956081004
5.592000093000024,0.6870908674753948,-0.11849972098576829
5.600000301000023,1.1193362325474936,-0.1567581090198764
5.608000342999958,1.0064408331425954,-0.15854954419179232
5.61600023699998,0.7354818036163882,-0.11419190722506521
5.624000335000005,1.435463492790112,-0.03486009562514625
5.632000210000001,0.7548180361638819,-0.030521156185678442
5.64000012300005,1.1871137560082399,-0.09153346878329156
5.648000202000048,1.0354955367360952,-0.10635212958228564
5.656000224999957,0.8515999084458686,-0.04107178352114848
5.664000099999953,1.445181963836118,0.025834331758168523
5.672000013000002,0.8064316777294576,-3.274154849634142e-05
5.680000036000024,1.2290089265278095,-0.06241506359928434
5.6880000969999855,1.0644998855573358,-0.03580906258286308
5.696000045999995,0.9548271915770199,0.03792069863335861
5.70400014400002,1.4612954909590294,0.0300293661927208
5.712000297000031,0.7354818036163882,-0.013396702572371091
5.720000172000027,1.3386816205081253,-0.012781980115584879
5.728000232999989,1.0289997711146714,-0.027721783530102018
5.736000145000048,0.8838773174639505,-0.042847005393190724
5.74400033500001,1.409681849393454,-0.016814796117226104
5.7520003590000215,0.7160952162966353,-0.02954214723660516
5.760000270999967,1.2612863355458914,-0.09317899937109025
5.768000220999966,0.9419363698786907,-0.08914283108324063
5.776000095999962,0.9838818951705195,0.025086446189933238
5.784000342000013,1.4709636072327763,0.0889377550712819
5.792000124999959,0.7903181506065461,0.011813876768099068
5.800000073999968,1.2838452735179673,-0.04312235391782665
5.808000320000019,1.0387182421606773,0.012507265223888231
5.816000269000028,1.045163653009842,0.06301510416225185
5.824000181999963,1.367736324101625,0.028833631275931148
5.832000186999949,0.7515953307392995,-0.05052313472338004
5.8400002289999975,1.1935591668574044,-0.11862332409051954
5.848000344999946,0.9064362554360265,-0.12467495298671519
5.856000146000042,0.8935454337376975,-0.056008987301726765
5.864000077000014,1.3580682078278783,-0.0226315718459981
5.872000286000002,0.6903135728999771,-0.06378316761154894
5.880000235000011,1.2387273975738156,-0.09094374267448907
5.888000146999957,0.9096589608606088,-0.11035290662719331
5.896000318999995,0.8483772030212863,-0.10998388710955315
5.904000361000044,1.3161226825360492,-0.02470658454488801
5.912000162000027,0.8387090867475394,0.04038520312172862
5.920000112000025,1.2645090409704736,-0.008009955208798852
5.928000208999947,1.1290043488212407,0.05177623028317674
5.936000362999948,1.1935591668574044,0.32310799527408196
5.944000071000005,1.7258091096360721,0.30295029813159546
5.952000373000033,0.47419089036392764,-0.2649911260513401
5.9600003589999915,0.5806408789196612,-0.6975904978802026
5.968000363999977,0.5935317006179903,-0.4766289093168591
5.976000109999973,0.8644907301441976,-0.028328928929674452
5.984000169999945,1.4870771343556877,0.11075602708648838
5.992000046000044,0.7548180361638819,0.007158688252565278
6.000000161999992,1.2709544518196383,-0.03686071437081698
6.008000295999977,1.0257770656900893,0.02721176370372185
6.016000245999976,1.0516090638590065,0.09489638431527844
6.024000158000035,1.4257953765163653,0.10915222179938772
6.03200032999996,0.8419317921721218,0.06336928683176916
6.040000168000006,1.2709544518196383,-0.004730731484216773
6.048000283999954,1.022554360265507,-0.008905852560810164
6.056000197000003,0.9322682536049439,0.047806375306998466
6.064000035000049,1.4064591439688714,0.006157470837567696
6.072000373000037,0.5999771114671549,-0.09285150140032027
6.080000266999946,1.2741771572442206,-0.04668152160470631
6.088000086999955,1.0193316548409246,0.02917380933410061
6.096000239999967,0.9322682536049439,-0.005363215092406552
6.104000227000029,1.312899977111467,0.00851435714492156
6.11200038000004,0.8806546120393682,0.10611036258722482
6.120000273999949,1.4064591439688714,0.13127384512796053
6.128000241999985,1.0838864728770885,0.1033198704716917
6.1360001169999805,1.0354955367360952,0.09783581087434373
6.1440003259999685,1.3741817349507897,0.046966555756226006
6.152000386000054,0.7193179217212177,-0.003280012585878428
6.160000279999963,1.3193453879606316,0.024939606706910686
6.168000043999996,1.0064408331425954,0.01716760542680933
6.176000363999947,0.8871000228885328,-0.024520957971619392
6.184000147000006,1.2935637445639734,-0.01366745027406134
6.192000300000018,0.7483726253147173,-0.02687987023282218
6.20000035999999,1.1516136415655756,-0.07577307178862941
6.208000273000039,0.9419363698786907,-0.06388925015203029
6.216000036999958,0.9354909590295262,-0.0011262585383423705
6.224000079000007,1.2580636301213093,0.009992984138509475
6.2320003249999445,0.7451499198901349,-0.0687837382159841
6.240000273999954,1.058054474708171,-0.1457691448601661
6.248000150000053,0.8903227283131151,-0.12048560410698353
6.256000320999988,0.8644907301441976,-0.03562578725730147
6.264000030000034,1.3257907988097963,0.007235690996689222
6.272000256999945,0.7160952162966353,0.015466173241708068
6.280000298999994,1.2870679789425499,-0.01642436892363614
6.288000341000043,0.8419317921721218,-0.1012870538513794
6.296000272000015,0.8322636758983748,-0.08132848382355745
6.304000332999976,1.3870725566491187,0.0731212324722553
6.312000171000022,0.8419317921721218,0.13485407592138415
6.320000138999944,1.312899977111467,0.04243129807194208
6.328000032999967,0.9644953078507668,-0.01694895574751135
6.336000185999978,0.8806546120393682,0.028437775981037777
6.344000284000003,1.4322407873655298,0.050317516771426
6.352000084999986,0.6709773403524834,0.03625963320287548
6.360000293999974,1.335458915083543,0.035276658587239516
6.368000336000023,0.9773861295490959,-0.009315900397656098
6.376000173999955,0.8128770885786221,-0.016999793024381517
6.384000141999991,1.409681849393454,0.05084871167018449
6.392000350999979,0.7258136873426413,0.028623967757697637
6.400000244000012,1.1806179903868161,-0.046798250754198356
6.40800023099996,0.9773861295490959,-0.021898508809756696
6.4160000880000325,0.9322682536049439,0.05792975837057342
6.424000296000031,1.400013733119707,0.11343740509618272
6.432000061000053,0.8515999084458686,0.12101971618518313
6.440000083999962,1.2709544518196383,0.042407677319598956
6.4480002190000505,0.9516044861524375,-0.03812071276738254
6.456000205000009,0.8354863813229572,0.00019405185405219766
6.4640000250000185,1.3935683222705424,0.029260374177346865
6.472000010999977,0.5935317006179903,-0.04496499182277869
6.480000348999965,1.1967818722819865,-0.09230321917388927
6.4880001689999744,0.8515999084458686,-0.09270009829592364
6.496000247999973,0.8128770885786221,-0.07063505131969362
6.504000382999948,1.30323186083772,0.013093099256997417
6.512000016999991,0.7515953307392995,0.04953067609740624
6.520000263000043,1.212895399404898,-0.04536984121569744
6.528000268000028,0.8290409704737925,-0.10431070533245007
6.536000013000034,0.8258182650492103,-0.06408819589405212
6.544000258999972,1.190336461432822,-0.11526759142350455
6.552000189999944,0.512863355458915,-0.1532075352802833
6.560000065000054,1.3838498512245363,0.10284137416565045
6.568000291999965,1.2580636301213093,0.3456939171522942
6.5760001859999875,1.01288624399176,0.08791195911711179
6.584000005999997,0.8258182650492103,-0.41316509147852554
6.592000010999982,0.21289997711146716,-0.5301008411975134
6.600000070999954,0.9387136644541084,-0.25151063299695375
6.608000168999979,1.01288624399176,-0.012091148276640176
6.616000285000041,0.8741588464179446,0.09465053528662168
6.624000216000013,1.545136186770428,0.16337313584774701
6.632000091000009,0.7806500343327992,0.15069028989755917
6.640000095999994,1.3580682078278783,0.09178122012950415
6.6480003789999955,1.0387182421606773,0.08453829638941601
6.656000364999954,0.9871046005951017,0.13157639957707534
6.664000018000024,1.4741863126573584,0.16731877709409282
6.672000337999975,0.8128770885786221,0.1370622673396187
6.680000195000048,1.312899977111467,0.05941361715716685
6.688000199000044,0.9709407186999313,0.0275367536557414
6.6960002230000555,0.9773861295490959,0.11475333647835681
6.704000283000028,1.554854657816434,0.24132209241653668
6.712000288000013,0.9354909590295262,0.2796359264225677
6.720000274999961,1.4935225452048524,0.22508518319803977
6.728000167999994,1.125781643396658,0.18268151810877478
6.736000081000043,1.0838864728770885,0.23499566408546035
6.744000363000055,1.5935271229114212,0.27439940068507607
6.7520002019999765,0.8967681391622796,0.21844512724214188
6.760000150999986,1.3967910276951248,0.17995752463646886
6.768000303999997,1.1773952849622338,0.1861574234582718
6.7760002349999695,1.0419409475852597,0.19920708913653382
6.784000313999968,1.477409018081941,0.20358272168997554
6.792000023000014,0.8515999084458686,0.11363168037576553
6.80000012000005,1.1709498741130693,-0.025190939925339113
6.808000310000011,0.8999908445868618,-0.053479767616696976
6.816000092999957,0.8838773174639505,-0.020251215573437942
6.824000024000043,1.2032272831311512,-0.04602168116292052
6.832000381000057,0.612867933165484,-0.08634844526362634
6.84000031100004,1.122558937972076,-0.14917898975173208
6.848000038000009,0.6354772259098191,-0.25765744745059505
6.8560000429999945,0.6903135728999771,-0.24179601506613607
6.8640003629999455,1.1355001144426642,-0.09467313157079625
6.872000220000018,0.7096498054474707,-0.036155214776219594
6.880000169000027,1.1096681162737467,-0.08887288997838134
6.888000248000026,0.8322636758983748,-0.13811570003077822
6.896000234999974,0.7160952162966353,-0.15579426486609893
6.904000164999957,1.1516136415655756,-0.13593887581473896
6.912000373999945,0.5903089951934081,-0.08700723600897345
6.920000267999967,1.1871137560082399,-0.08864158248923312
6.928000180000026,0.7903181506065461,-0.13293212415526312
6.936000295999975,0.7515953307392995,-0.11264743569807928
6.944000005000021,1.2741771572442206,-0.07442883463747618
6.952000028000043,0.522581826504921,-0.08447763471154142
6.9600001439999915,1.2290089265278095,-0.09700861932694663
6.9680000749999635,0.7967635614557106,-0.10062461339501261
6.976000136000039,0.8580453192950331,-0.048409802446309234
6.984000270000024,1.2935637445639734,0.02814494636167666
6.992000330999986,0.7032043945983063,-0.027053130667161786
7.0000000950000185,1.077390707255665,-0.136594931121812
7.008000229000004,0.8580453192950331,-0.10680969774129526
7.016000215999952,0.8806546120393682,-0.00937521623775369
7.0240001099999745,1.2838452735179673,0.009756186615187505
7.0320002260000365,0.7160952162966353,0.006257505486165029
7.040000137999982,1.254840924696727,0.008689824198824912
7.048000235000018,0.9193270771343557,-0.032814547852070435
7.056000055000027,0.8935454337376975,0.0022377807143846755
7.064000355999951,1.3967910276951248,0.12706529771572506
7.072000287000037,0.8580453192950331,0.12099790594707402
7.080000254999959,1.2290089265278095,0.0013158413830882537
7.088000056000055,0.9096589608606088,-0.03369217234626372
7.096000023999977,0.9193270771343557,-0.007614124419338188
7.104000214000052,1.2516182192721446,-0.013108318747231978
7.112000349000027,0.6612588693064775,-0.023948423965338212
7.1200002430000495,1.2709544518196383,-0.05568913243258378
7.128000006999969,0.777427328908217,-0.09436164636794987
7.1360000490000175,0.86771343556878,-0.06157561923997495
7.144000293999966,1.3096772716868847,-0.027150976376411506
7.152013002999979,0.5741954680704967,-0.03180772817274557
7.160000101000037,1.3386816205081253,-0.027029923859490858
7.168000105000033,0.8612680247196154,-0.03382103160366657
7.176000258000045,0.8935454337376975,-0.0039463786157287566
7.184000078000054,1.3838498512245363,0.05141247640156221
7.192000175999965,0.7451499198901349,0.07237430745266701
7.200000050999961,1.4870771343556877,0.19233693758697365
7.208000167000023,1.222563515678645,0.30767959777741927
7.216000152999982,0.9967727168688487,0.03670871679158138
7.224000380999996,0.7935408560311283,-0.456070498565123
7.232000348000042,0.15156786449988555,-0.5723649083688757
7.240000186999964,1.0032181277180132,-0.29463704157722015
7.248000339999976,0.845154497596704,-0.06430059093898283
7.256000178000022,0.9967727168688487,0.04332677547114225
7.264000257000021,1.3838498512245363,0.12276136978603651
7.272000187999993,0.8580453192950331,0.10788548278256106
7.280000247999965,1.2935637445639734,0.040477840108927104
7.288000179000051,0.9741634241245135,0.02319349280800302
7.296000314000025,0.9741634241245135,0.029697385091726897
7.3040002449999974,1.3064545662623026,0.035076060806028014
7.312000248999993,0.7806500343327992,0.059337564209591354
7.320000198999992,1.3741817349507897,0.05905132199680571
7.328000315000054,0.9387136644541084,0.03976918232760467
7.336000263999949,1.054831769283589,0.08549172820996728
7.344000157999972,1.4161272602426183,0.12909178730719437
7.352000310999983,0.7935408560311283,0.08950836226754931
7.3600002419999555,1.3709590295262073,0.04651024099405202
7.368000190999965,0.9548271915770199,0.044275891432236716
7.376000214999976,1.0257770656900893,0.06106222292628975
7.384000348999962,1.3774044403753718,0.0884174992577989
7.392000076000045,0.8225452048523689,0.10781002865654404
7.400000321999983,1.400013733119707,0.08182275421652144
7.408000179000055,0.9548271915770199,0.02474812463885881
7.416000054000051,0.9580498970016021,0.02027001244865641
7.424000263000039,1.400013733119707,0.06501407870233393
7.4320000080000455,0.767708857862211,0.09386599132138854
7.440000069000007,1.4322407873655298,0.0745846695318176
7.4480001660000426,0.8967681391622796,-0.004844338541131655
7.456000171000028,0.9161043717097733,-0.06654492876148624
7.464000342999952,1.222563515678645,-0.05290044503378638
7.472000217999948,0.7387045090409705,-0.016253934489892086
7.48000033400001,1.2838452735179673,-0.007118886587394297
7.488000041999953,0.8806546120393682,-0.06186100155847771
7.496000047000052,0.8483772030212863,-0.1349069291513084
7.504000367000003,1.1709498741130693,-0.10083847520278437
7.512000093999973,0.7387045090409705,-2.7682226932439213e-05
7.520000024999945,1.3484000915541312,-0.0004494922709872896
7.5280003630000465,0.8322636758983748,-0.0561545367699218
7.536000294000019,0.9387136644541084,-0.05989943507236433
7.544000020999988,1.2064499885557336,-0.1112799988540798
7.552000099999987,0.5322499427786679,-0.1539380454295522
7.560000252999998,1.322568093385214,-0.04630480341266366
7.568000256999994,0.9483817807278553,0.034939362463065775
7.576000281000006,1.0032181277180132,0.011221154110180246
7.584000285999991,1.312899977111467,0.040070176463979645
7.592000160999987,0.8548226138704509,0.07460689631941066
7.600000220999959,1.3161226825360492,0.024620968500671643
7.608000337000021,0.9612726024261845,0.008283629260100534
7.616000063999991,1.0289997711146714,0.04887356954738496
7.624000291000016,1.3322362096589608,0.024503003738190306
7.632000147999975,0.7193179217212177,-0.0077206583754507885
7.640000190000023,1.3484000915541312,0.008113285576014097
7.6480001209999955,0.9161043717097733,-0.030137030539058376
7.656000292000044,0.9193270771343557,-0.04983497826584652
7.664000185999953,1.335458915083543,0.025579756599082425
7.6720002829999885,0.799986266880293,0.04645058472527103
7.680000122000024,1.3322362096589608,0.005013497436819028
7.688000107999983,0.9516044861524375,0.031970322968325554
7.6960000940000555,1.1032227054245822,0.06661640534117187
7.70400035800003,1.2773998626688028,0.017622410403727553
7.712000066999963,0.7160952162966353,-0.04002525993790444
7.7200002380000114,1.3064545662623026,-0.06135027809719226
7.728000077000047,0.845154497596704,-0.05316534845591642
7.736000247999982,0.9806591897459372,-0.02267847863808948
7.744000252999967,1.30323186083772,-0.04438478740951384
7.752000165000027,0.6160906385900664,-0.0595746997123851
7.7600003180000385,1.390295262073701,-0.006854456498042891
7.768000193000034,0.8999908445868618,-0.02635518530993302
7.776000217000046,0.9193270771343557,-0.061844874071816776
7.784000109999965,1.322568093385214,0.007879123224979594
7.792000300000041,0.7870954451819637,0.02050873311786694
7.800000193999949,1.2612863355458914,-0.05677814418014525
7.808000068999945,0.8838773174639505,-0.06080146362594918
7.816000370999973,1.032272831311513,0.019051779021218303
7.824000115999979,1.522577248798352,0.21005880899394344
7.832000250999954,1.1516136415655756,0.45625837442526684
7.840000273999976,1.6935317006179902,0.2619998568198712
7.8480003339999485,0.45480430304417485,-0.41994040206391886
7.856000283999947,0.3322407873655298,-0.689513234267485
7.864000214000043,1.0419409475852597,-0.2605940678191539
7.872000349000018,0.8838773174639505,0.1015774825800364
7.880000020000011,1.3774044403753718,0.08429190959764105
7.888000080999973,0.9967727168688487,0.020954382421845906
7.896000252000022,1.0644998855573358,0.0485594271522274
7.904000312999983,1.3709590295262073,0.11220824559479246
7.912000077000016,0.9548271915770199,0.15683574534266626
7.920000100000038,1.435463492790112,0.0994986074125258
7.928000345999976,0.9516044861524375,0.02751780331537767
7.936000164999996,1.0838864728770885,0.06877486212082899
7.944000207000045,1.4161272602426183,0.0865836805159576
7.95200011899999,0.7290363927672235,0.027244446386011246
7.960000365000042,1.435463492790112,0.028311106542909706
7.968000202999974,0.9548271915770199,0.06491073034903229
7.976000003999957,1.1355001144426642,0.09090907954121835
7.984000175999995,1.4193499656672006,0.1419868137764164
7.992000050999991,0.9257724879835203,0.1578335469559602
8.000000019000026,1.458072785534447,0.09594035693647555
8.008000172000038,0.945159075303273,0.05135395445584361
8.016000251000037,1.154836346990158,0.08769800969456557
8.024000366999985,1.3935683222705424,0.1335314543396564
8.032000315999994,0.8838773174639505,0.12251422181009412
8.040000339000017,1.435463492790112,0.05243914408338615
8.048000307000052,0.8644907301441976,-0.015474196427160055
8.056000368000014,1.0644998855573358,0.0055887136787275
8.064000317000023,1.3322362096589608,0.048778161007653115
8.072000118000005,0.7419272144655528,0.004389590631393625
8.080000364000057,1.322568093385214,-0.06859238071863771
8.088000276000002,0.8258182650492103,-0.06570570126660442
8.096000187999948,0.9967727168688487,-0.02818541315295921
8.10400034099996,1.2612863355458914,-0.06741436497920159
8.112000364999972,0.5967544060425726,-0.10283636863343826
8.120000054999991,1.3484000915541312,-0.045633185972634244
8.12800035600003,0.8903227283131151,-0.03397149075231952
8.136000082999999,0.8838773174639505,-0.09411660825006588
8.144000106000021,1.254840924696727,-0.10134997222772238
8.15200031500001,0.6258091096360723,-0.06513302549649416
8.160000115999992,1.3419546807049667,-0.061963187089853884
8.168000010000014,0.8096543831540398,-0.07369670964406613
8.176000218000013,1.01288624399176,-0.03789133864519302
8.184000093000009,1.254840924696727,-0.003938559377145279
8.192000227999984,0.7612634470130464,-0.02807524850898843
8.200000196000019,1.2838452735179673,-0.0354602237615181
8.208000311999967,0.9322682536049439,0.00013314262096834374
8.216000186999963,1.0387182421606773,0.004485654772960568
8.224000247000049,1.2290089265278095,-0.025692434489084325
8.232000382000024,0.767708857862211,-0.016809037773847638
8.24000016399998,1.3419546807049667,0.005754084022928279
8.248000280000042,0.8644907301441976,-0.042177737776680935
8.256000100000051,0.9516044861524375,-0.0923527768372456
8.26400017900005,1.2290089265278095,-0.039956294850169924
8.272000239000022,0.767708857862211,0.03554937040526576
8.28000005900003,1.4257953765163653,0.014529343215620303
8.288000026999953,0.8160997940032044,-0.016491859242809617
8.296000161000052,1.1,0.028757237758217244
8.30400001800001,1.3386816205081253,0.04756885203835069
8.31200022600001,0.7644861524376287,0.07369024542796192
8.320000138999944,1.5870817120622567,0.17989986300290076
8.328000031999977,1.1096681162737467,0.21273284701566791
8.336000110999976,1.1064454108491646,0.13482004087931887
8.344000079000011,1.4386861982146943,0.07725633641748236
8.35200002800002,0.7580407415884641,0.08487897249134861
8.360000273999958,1.4612954909590294,0.08414070132382712
8.368000334000044,0.9257724879835203,0.003113591978400993
8.376000097999963,0.9354909590295262,-0.05129285968138974
8.384000288000038,1.2580636301213093,-0.02063120238727159
8.392000070999984,0.7644861524376287,-0.02218964715936551
8.400000187000046,1.2741771572442206,-0.015261111322201598
8.408000302999994,0.9709407186999313,0.05002848070241987
8.416000011000051,1.0935545891508354,0.03388466475508942
8.424000016000036,1.1967818722819865,-0.0032951974087807754
8.432000261999974,0.8709361409933623,0.08077535088782505
8.440000248000047,1.4386861982146943,0.08805942018761888
8.448000085999979,0.86771343556878,0.015400880662226748
8.456000202000041,1.2806225680933851,0.20342382702576595
8.464000355000053,1.6000228885328451,0.3991338402259243
8.472000303999948,0.8806546120393682,0.06383862052574926
8.480000382999947,0.7967635614557106,-0.48204434862137374
8.488000388000046,0.34835431448844123,-0.5673508109806107
8.496000041000002,0.8064316777294576,-0.23550090578706762
8.504000249,1.2903410391393912,0.06496215939757065
8.512000087000047,0.9193270771343557,0.16654324957926267
8.52000038899996,1.4902998397802698,0.12284276487046061
8.528000375000033,0.9064362554360265,0.06212289235781413
8.53600015699999,1.125781643396658,0.07930279048301792
8.544000106999988,1.335458915083543,0.07010758021767213
8.552000074000034,0.7419272144655528,0.031139215594002775
8.560000171999945,1.4484046692607004,0.08447267412648665
8.568000158000018,0.9967727168688487,0.12569847858569666
8.57600005200004,1.1161135271229115,0.07924141940535079
8.584000038,1.2709544518196383,0.054609570877757155
8.592000339000037,0.8515999084458686,0.06322073812262237
8.600000195999996,1.3612909132524604,0.05896689100188803
8.608000015000016,0.9257724879835203,0.049986857586731555
8.616000000999975,1.0871091783016709,0.028492795147421892
8.624000209999963,1.2516182192721446,0.0390774014824119
8.632000028999983,0.8580453192950331,0.12409878786275837
8.640000311999984,1.5129091325246051,0.13076094663649415
8.64800018699998,0.845154497596704,0.024559590228944286
8.656000359000018,1.058054474708171,0.011323074748831336
8.664000234000014,1.312899977111467,0.05870245244501335
8.672000163999996,0.767708857862211,0.048564672827044936
8.680000058000019,1.3741817349507897,0.04703036539837729
8.688000081000041,0.9257724879835203,0.020132250928733275
8.696000345000016,0.9387136644541084,-0.04977554658838773
8.704000053999948,1.1967818722819865,-0.04777437416254035
8.712000132999947,0.7515953307392995,-0.010416020143071855
8.72000002599998,1.2419501029983977,-0.05414305629364447
8.728000234999968,0.7419272144655528,-0.1527427049698896
8.736000109999964,0.777427328908217,-0.22799554691223278
8.744000281000012,1.0354955367360952,-0.2284613950299509
8.752000193999947,0.5322499427786679,-0.14512607511621348
8.76000034699996,1.3096772716868847,-0.10149917113525382
8.768000055000016,0.6548134584573129,-0.13927001496300997
8.776000170999964,0.9193270771343557,-0.13872410067714122
8.784000342000013,1.067722590981918,-0.1606452964932726
8.792000142999996,0.5064179446097505,-0.23077139563574645
8.800000018999981,1.1355001144426642,-0.17080734570825998
8.808000264000043,0.8354863813229572,-0.06080217761843566
8.816000195000015,0.9354909590295262,-0.07207253531047986
8.82400029200005,1.1419455252918287,-0.07321594404103163
8.832000240999946,0.7612634470130464,0.004060284227190621
8.840000282999995,1.322568093385214,-0.0035284068446273034
8.84800002899999,0.7483726253147173,-0.0837559005810405
8.856000330000029,0.9741634241245135,-0.0931455201777509
8.864000037999972,1.1096681162737467,-0.07668485096684205
8.87200021000001,0.6967589837491417,-0.0648267842139618
8.880000324999969,1.2903410391393912,-0.020622522620407077
8.888000070999965,0.8193224994277866,-0.04482392916581794
8.896000019999974,0.8935454337376975,-0.13312101832199955
8.904000340000039,1.1290043488212407,-0.09655399689269269
8.912000011000032,0.7483726253147173,0.04387557687380803
8.920000071999993,1.4612954909590294,0.06758814917343137
8.928000205999979,0.7709315632867934,-0.003431308980244914
8.93600035899999,1.058054474708171,-0.01908204358518499
8.944000159999973,1.1935591668574044,-0.03365773280343569
8.952000017000046,0.6515907530327306,-0.03057655945399411
8.960000021000042,1.4419089036392767,0.05890618126198574
8.96800010000004,0.9193270771343557,0.09080931211339158
8.976000345999978,1.0387182421606773,0.02564798649660926
8.984000090999984,1.2419501029983977,-0.013659050684949901
8.99200035499996,0.6742000457770656,-0.018967442147822745
9.000000044999979,1.3290135042343785,-0.0339837504484046
9.008000346000017,0.7806500343327992,-0.04061287562416243
9.016000351000002,1.032272831311513,-0.021406699467693024
9.024000060000049,1.1838406958113985,-0.012299106327368277
9.032000008999944,0.7387045090409705,-0.013246958669440033
9.040000235999969,1.312899977111467,0.0007917373404958371
9.048000278000018,0.86771343556878,0.00385995121678438
9.056000189999963,1.022554360265507,0.010549492366214134
9.064000102000023,1.2903410391393912,0.037546911013041785
9.072000161999995,0.6774227512016479,0.021781153763374556
9.08000003699999,1.467740901808194,0.007023722487647977
9.088000153000053,0.8290409704737925,0.14313408456282325
9.096000232000051,1.390295262073701,0.22211589510543905
9.104000273999986,1.01288624399176,-0.1380953856605572
9.112000222999995,0.1257862211032273,-0.599554539410092
9.120000117000018,0.8483772030212863,-0.5291893484380962
9.128000158999953,0.6838681620508125,-0.10950944265512995
9.136000349000028,1.1677271686884871,0.09289097491816974
9.144000039000048,1.2354543373769742,0.03962774605575914
9.152000377000036,0.7515953307392995,0.025658156403127998
9.160054048000006,1.445181963836118,0.08609597879253814
9.168000127000028,0.9064362554360265,0.08962395985707682
9.176000354000053,1.125781643396658,0.0739163905719109
9.184000340000011,1.2838452735179673,0.07375397083520485
9.192000177999944,0.7870954451819637,0.05343682320763523
9.20000014599998,1.390295262073701,0.05174504490392273
9.208000132000052,0.8935454337376975,0.0641232511799787
9.216000043999998,1.0967772945754177,0.03401913604993295
9.22400006800001,1.2064499885557336,0.015444202227475213
9.232000165000045,0.8258182650492103,0.0854548281087224
9.240000187999954,1.500018310826276,0.14712489933208478
9.24800006299995,0.9290455481803617,0.11500944835280076
9.256000030999985,1.1612817578393224,0.09656549359253852
9.26400025800001,1.335458915083543,0.13302813182331638
9.272000169999956,0.8838773174639505,0.14645134400223886
9.280000119999954,1.4516273746852826,0.11399465175691106
9.288000012999987,0.9161043717097733,0.06792378914064191
9.296000388000039,1.0709452964065003,0.04451139300374253
9.304000096999971,1.267731746395056,0.02860601823369425
9.312000378999983,0.7258136873426413,0.014734836546357911
9.320000014000016,1.3870725566491187,0.033026767866609505
9.328000388999953,0.9032135500114442,0.05331066386167584
9.33600026399995,1.0193316548409246,0.014548017900503498
9.344000324000035,1.222563515678645,-0.06446704556163109
9.352000274000034,0.5741954680704967,-0.07687850296740253
9.36000001900004,1.3580682078278783,-0.04938002781610599
9.368000283000015,0.7290363927672235,-0.09657345301636508
9.376000307000027,0.8806546120393682,-0.12982824634392834
9.384000330000049,1.1935591668574044,-0.08417404270267795
9.39200029799997,0.6193636987869078,-0.06660030818986759
9.400000320999993,1.267731746395056,-0.09560389778566994
9.408000325999978,0.7515953307392995,-0.10330146396847044
9.416000274999988,0.9419363698786907,-0.07280541027973524
9.424000317000036,1.222563515678645,-0.03519313503584853
9.432000266000045,0.6999816891737239,0.00019159997704453272
9.440000029999965,1.409681849393454,0.03175172490295225
9.448000108999963,0.845154497596704,0.02905220458215266
9.456000224000036,1.0644998855573358,-0.005958529718678015
9.464000100000021,1.1741725795376516,-0.03032592306268897
9.472000030000004,0.7515953307392995,0.007041036914770358
9.480000015999963,1.4161272602426183,0.06505965651361573
9.488000280000051,0.8548226138704509,0.02690675006914896
9.49600004399997,1.0161089494163424,-0.06164741391591184
9.504000326999972,1.1419455252918287,-0.04838957257728801
9.512000054000055,0.799986266880293,0.04523424680164165
9.52000031800003,1.4257953765163653,0.06573883073227088
9.528000063000036,0.8258182650492103,0.013247566234858062
9.53600036399996,1.090331883726253,0.0077647122592755455
9.544000221000033,1.2612863355458914,0.050384197450719474
9.552000040000053,0.8387090867475394,0.1103485980770023
9.560000340999977,1.522577248798352,0.15112773048590195
9.568000253000037,0.9354909590295262,0.10861904232812591
9.576000275999945,1.1290043488212407,0.0591325087034617
9.584000263000007,1.2516182192721446,0.056390012239006256
9.592000230000053,0.8032089723048752,0.018194162794727797
9.600000235000039,1.2612863355458914,-0.03876796271512705
9.60800029500001,0.8515999084458686,-0.0380859419167181
9.616000189000033,0.9871046005951017,-0.035964365020437525
9.624000323000018,1.15805905241474,-0.09271395273375822
9.632000049999988,0.5967544060425726,-0.1120377716470459
9.640000183999973,1.3419546807049667,-0.048476935340178384
9.648000262999972,0.8193224994277866,0.003193716531016858
9.656000120000044,1.0741680018310824,0.008278316944357954
9.664000384000019,1.2387273975738156,0.0013829939720242414
9.672000350999951,0.7387045090409705,0.021761057517854555
9.68000026300001,1.435463492790112,0.06434091581254643
9.688000175999946,0.9838818951705195,0.12874184783439196
9.696000124999955,1.2645090409704736,0.23591564740579074
9.704000259000054,1.409681849393454,0.16492229230582467
9.712000338000053,0.5161364156557565,-0.24031339125620263
9.720000324000011,0.7644861524376287,-0.5486182556661153
9.728000069000018,0.5258045319295033,-0.37017270966739035
9.73600035200002,0.9773861295490959,-0.03221061379783814
9.744000116000052,1.3709590295262073,0.0847253523943721
9.752000286999987,0.7967635614557106,0.1306014533245873
9.760000291999972,1.622581826504921,0.1957326111799988
9.768000278000045,0.9741634241245135,0.15992308577768946
9.776000135000004,1.2032272831311512,0.1497276921997605
9.78400010200005,1.4193499656672006,0.18361782826530462
9.792000273999975,0.8419317921721218,0.08132062672147217
9.800000000999944,1.322568093385214,-0.0009109549849839436
9.808000246000006,0.9483817807278553,0.09018929916756514
9.816000343000042,1.2290089265278095,0.13294896701445533
9.824000051999974,1.2419501029983977,0.08016425618704096
9.832000074999996,0.9225497825589379,0.12889197857657472
9.840000024000005,1.5290226596475165,0.18036881963219062
9.848000083999978,0.9193270771343557,0.09315961323129404
9.856000385000016,1.125781643396658,0.039784206338164096
9.864000279000038,1.3064545662623026,0.09424605570518388
9.872000024000045,0.8967681391622796,0.1517488440581226
9.880000363000022,1.545136186770428,0.17484187230427325
9.888000238000018,0.9516044861524375,0.13099387760898948
9.89600013100005,1.1419455252918287,0.04099780516002882
9.904000265000036,1.2096726939803157,0.024102883839978606
9.912000232999958,0.8483772030212863,0.08391161367822732
9.920000016000017,1.4548500801098647,0.0852092194703279
9.928000279999992,0.8548226138704509,0.03235168497836987
9.936000265999951,1.0741680018310824,0.01038084388680646
9.944000158999984,1.2322316319523918,-0.03608992622999789
9.952000108999982,0.5870862897688258,-0.07923972240489256
9.960054947000003,1.390295262073701,-0.05113013195649983
9.968000247999953,0.7290363927672235,-0.05758629655065224
9.976000030000023,0.9871046005951017,-0.1073599521658632
9.984000349999974,1.0967772945754177,-0.10873516654889287
9.992000243000007,0.6742000457770656,-0.08986387657739552
10.000000340000042,1.2483955138475622,-0.09240874951086273
10.008000141000025,0.7644861524376287,-0.08877615588247968
10.016000201999987,1.0161089494163424,-0.05381414794521238
10.024000316999945,1.1967818722819865,-0.01005425600132346
10.032000174000018,0.7806500343327992,0.023896737068728267
10.040000030999977,1.409681849393454,0.03959050609186281
10.04800014600005,0.8128770885786221,0.011712733606448741
10.056000207000011,1.090331883726253,-0.038070013565123524
10.064000174000057,1.1290043488212407,-0.03282044639256331
10.072000049000053,0.8032089723048752,0.030051843281889472
10.080000313000028,1.3774044403753718,0.002259655247264031
10.088000039999997,0.6612588693064775,-0.1297205407939809
10.096000341000035,0.9903273060196841,-0.14386947893292062
10.104000216000031,1.0967772945754177,-0.04796551587894749
10.112000276999993,0.767708857862211,-0.047509535787857916
10.120000336999965,1.2290089265278095,-0.08438577457446089
10.128000305,0.8225452048523689,-0.025830583374379684
10.13600003099998,1.0806134126802471,-0.000995101955955424
10.144000313999982,1.1322270542458228,-0.08185122106936796
10.152000188999978,0.6354772259098191,-0.07680296064514854
10.160000083,1.4257953765163653,0.00330635008292195
10.168000161000009,0.7483726253147173,-0.023595002567936306
10.176000202999944,1.067722590981918,-0.04531790293021169
10.184000355999956,1.2322316319523918,0.03789293007367454
10.192000378999978,0.8193224994277866,0.07244988689592144
10.200000068999998,1.4032364385442893,0.027561123413722716
10.20800025899996,0.8258182650492103,0.020985825942282897
10.216000301000008,1.112890821698329,0.018642128783101772
10.224000341999954,1.1612817578393224,-0.055443724362474016
10.23200018,0.6258091096360723,-0.07992422827497112
10.240000166999948,1.400013733119707,-0.01712825593832989
10.248000357000024,0.777427328908217,-0.0019545571842990166
10.256000250000056,1.1,-0.009009082858698786
10.264000143999965,1.1871137560082399,0.010167044568743773
10.272000111000011,0.7870954451819637,0.002446121151103332
10.28000019000001,1.3193453879606316,-0.00016928070308870266
10.288000101999955,0.8580453192950331,0.012683018310348142
10.296000069999991,1.077390707255665,-0.021376966309925874
10.304000259999953,1.122558937972076,-0.01646844722675706
10.312000172000012,1.0193316548409246,0.18116670488472839
10.320000102999984,1.6419180590524145,0.37787180665374526
10.32800020000002,1.0483863584344244,0.1486666532079219
10.336000353000031,0.5967544060425726,-0.4357106298991907
10.344000357000027,0.4999725337605859,-0.7284313208848608
10.352000139999973,0.2999633783474479,-0.40767418446056436
10.360000108000008,1.4645181963836118,0.035885846361749935
10.368000075000054,0.8354863813229572,0.11107418044779556
10.376000191000003,1.190336461432822,0.0033806997964072882
10.384000085000025,1.1,0.004651013002092905
10.392000367000037,0.8741588464179446,0.04883332322479177
10.400000149999983,1.367736324101625,0.04536990813682962
10.408000357999981,0.8709361409933623,0.0626366973247707
10.41600021399995,1.200004577706569,0.08453363718631732
10.424000349000039,1.190336461432822,0.02357394390919135
10.432000186999971,0.7354818036163882,-0.014805107644070687
10.440000173000044,1.4129045548180361,0.03791829372370397
10.44800034399998,0.8354863813229572,0.04452127307333033
10.456000127000038,1.1161135271229115,0.011073617078058295
10.46400022399996,1.2290089265278095,0.05324079271953002
10.472000357999946,0.8644907301441976,0.11601913880774806
10.480000047999965,1.4709636072327763,0.09391205042126001
10.488000070999988,0.8160997940032044,0.04029920234667248
10.496000334999962,1.1677271686884871,0.04742321268099134
10.504000079999969,1.24517280842298,0.07234901755458023
10.512000158999967,0.8032089723048752,0.07046175457716691
10.52000001600004,1.4484046692607004,0.05476204545324989
10.528000167999949,0.8064316777294576,0.03580125431769243
10.536000025000021,1.1290043488212407,0.02143315849579567
10.544000288999996,1.1773952849622338,-0.008872985855000083
10.552000108000016,0.7290363927672235,-0.0063889989938854695
10.560000187000014,1.4129045548180361,0.05095261985029954
10.568000321,0.8515999084458686,0.03985855926274799
10.576000215000022,1.058054474708171,-0.0294381953862822
10.584000219000018,1.1161135271229115,-0.044419781704479716
10.592000353999993,0.7354818036163882,-0.05123235653762996
10.600000154999975,1.2193408102540628,-0.10699863726975033
10.608000103999984,0.6515907530327306,-0.14404340014895392
10.616000090000057,1.022554360265507,-0.12145482973135166
10.624000316999968,1.022554360265507,-0.07605631978423762
10.63200033999999,0.7806500343327992,-0.037256931818396774
10.640000010999984,1.2870679789425499,-0.03783486939381216
10.648000386000035,0.7290363927672235,-0.059890909298903394
10.656000167999991,1.0967772945754177,-0.030184082920086043
10.664000266000016,1.1773952849622338,0.028254059958686403
10.672000232999949,0.7742046234836347,0.03450914783229296
10.680000238000048,1.3741817349507897,-0.02962522192874488
10.68800007599998,0.6580361638818951,-0.07651152257599106
10.696000303000005,1.0935545891508354,-0.04295252433250498
10.704000232999988,1.1709498741130693,-0.003536619107427177
10.712000145000047,0.7515953307392995,0.04288004372814652
10.720000131000006,1.500018310826276,0.09444953548598126
10.728000320999968,0.7870954451819637,0.028029215613699726
10.736000159000014,1.0516090638590065,-0.06933197775746577
10.744000200999949,1.1064454108491646,-0.033467957732000723
10.752000093999982,0.8258182650492103,0.036066863077649926
10.76000017299998,1.345177386129549,0.02951554666259537
10.768000251999979,0.845154497596704,0.02593809884895886
10.776000385999964,1.125781643396658,0.03631697187683913
10.784000039000034,1.1355001144426642,-0.025535531734021892
10.792000357999996,0.7193179217212177,-0.04948911043420493
10.800000288999968,1.390295262073701,0.06546254284094305
10.808000163999964,0.9644953078507668,0.1420601998030268
10.81600022400005,1.1871137560082399,0.09864795852215127
10.824000135999995,1.2193408102540628,0.07433382817456381
10.832000325999957,0.8644907301441976,0.07730442109475026
10.84000031200003,1.335458915083543,0.008352606564992914
10.848000019999972,0.7258136873426413,-0.07164209318807971
10.856000136000034,1.0161089494163424,-0.08729078794411395
10.864000067000006,1.0806134126802471,-0.08743951950755627
10.872000275000005,0.6903135728999771,-0.041235509716556054
10.880000169000027,1.4032364385442893,0.023336199516155287
10.888000247000036,0.7128725108720531,-0.055232028422375574
10.896000084999969,0.945159075303273,-0.1749902020720617
10.904000311999994,1.032272831311513,-0.10755741347864123
10.91200018699999,0.8096543831540398,0.03736546025036402
10.920000135999999,1.3774044403753718,0.03466280280556903
10.92800006699997,0.8160997940032044,0.02315958264085751
10.936000127000057,1.2967864499885557,0.19785014490534095
10.944000372000005,1.4193499656672006,0.2598228392081605
10.952000357999964,0.6742000457770656,-0.09080685429651056
10.960000270000023,0.8096543831540398,-0.5223691127106269
10.968000126999982,0.2709590295262074,-0.5351194510557811
10.976000150000004,0.9290455481803617,-0.17535138293066066
10.98400006199995,1.2193408102540628,0.09312757536277834
10.992000214999962,0.9257724879835203,0.10285324317233792
11.000000275000048,1.3386816205081253,0.07957257609940478
11.008000280000033,0.9871046005951017,0.10841161203051262
11.016000155000029,1.1419455252918287,0.0975016538318169
11.024000363000027,1.2612863355458914,0.0790026414432631
11.032000015999984,0.8515999084458686,0.10733187214219261
11.040000131000056,1.477409018081941,0.10352597912461858
11.048000357999967,0.8160997940032044,0.06373036274450224
11.05600025199999,1.222563515678645,0.08412545546770528
11.064000033999946,1.2935637445639734,0.14680212520538363
11.07200035400001,0.9193270771343557,0.18392963161166037
11.080000061999954,1.5290226596475165,0.1386683919335115
11.088000140999952,0.7870954451819637,0.027049706570528236
11.096000275000051,1.1,-0.0028988237038899706
11.104000112999984,1.2612863355458914,0.06600671236508325
11.112000191999982,0.7967635614557106,0.10731368366670584
11.120000344000005,1.5484092469672694,0.1120316900859543
11.12800005300005,0.8515999084458686,0.1456379227449064
11.13600026100005,1.3322362096589608,0.1667685092143855
11.144000266000035,1.2419501029983977,0.10314925136256967
11.152000085000054,0.7806500343327992,0.04889967767142543
11.160000071000013,1.4806317235065232,0.07387013198701897
11.168002612999999,0.799986266880293,0.07087032195653137
11.17600022900001,1.1612817578393224,0.00422181746649837
11.184000122000043,1.0644998855573358,-0.05789146157757476
11.192000089999965,0.6967589837491417,-0.07928860471467844
11.20000009399996,1.2773998626688028,-0.07193132821673469
11.208000210000023,0.7290363927672235,-0.05823537071730846
11.216000381999947,1.054831769283589,-0.050763548505615944
11.224000219000004,1.1096681162737467,-0.05969381757382527
11.232000261000053,0.6903135728999771,-0.04952134699050187
11.240000283999962,1.3290135042343785,-0.04059634887435416
11.248000381999987,0.6935362783245593,-0.08931487251922422
11.256000330999996,1.0161089494163424,-0.10101985464572294
11.264000076000002,1.0741680018310824,-0.05517780420858327
11.272000025000011,0.7354818036163882,-0.07312255100723271
11.280000048000034,1.222563515678645,-0.0886840633978331
11.288000312000008,0.7903181506065461,-0.005900691382909334
11.296000038999978,1.1645044632639048,0.019190902015635433
11.304000136000013,1.0483863584344244,-0.06285564768800232
11.312000085000022,0.7258136873426413,-0.05513848694484938
11.320000274999984,1.3838498512245363,0.01389029809668101
11.32800014999998,0.7644861524376287,-0.0006975423040470332
11.336000173000002,1.090331883726253,-0.029928312500608352
11.344000196000025,1.1064454108491646,-0.061197114845014035
11.352000311999973,0.6515907530327306,-0.10041503340369731
11.360000371999945,1.3064545662623026,-0.044317207065380934
11.368000025000015,0.8483772030212863,0.04281989701362825
11.376000233000013,1.1387228198672465,0.02768577105246338
11.384000015999959,1.0806134126802471,-0.05113497739450471
11.392000149999944,0.7160952162966353,-0.09093534378098302
11.400000025000054,1.2806225680933851,-0.045018354016860156
11.408000085000026,0.8322636758983748,0.04750402650759542
11.416000312000051,1.2387273975738156,0.08039257744748043
11.424000149999983,1.154836346990158,0.04952683350628724
11.432000283999969,0.8515999084458686,0.06087483248971075
11.440000067000028,1.4419089036392767,0.06912216050643566
11.448000311999976,0.7580407415884641,0.006431327934054332
11.456000186999972,1.125781643396658,-0.027420220838674098
11.464000265999971,1.122558937972076,-0.021658523513281763
11.472000010999977,0.7096498054474707,-0.04137939668517362
11.48000012700004,1.345177386129549,-0.05358007263797514
11.488000093999972,0.7096498054474707,-0.028582520082326646
11.496000320999997,1.1677271686884871,-0.0036160068459105514
11.504000102999953,1.1064454108491646,-0.014047676097146685
11.512000274000002,0.7644861524376287,-0.01364401234635863
11.520000223000011,1.390295262073701,0.00843956712312148
11.52800007999997,0.7128725108720531,-0.026863390940158667
11.536000083999966,1.1096681162737467,-0.08379425802061116
11.544000256000004,1.0193316548409246,-0.06991252260615952
11.55200003799996,0.767708857862211,-0.026572852717401625
11.560000042999945,1.467740901808194,0.06054997248763918
11.568000268999981,0.9838818951705195,0.2883223528885804
11.57600005200004,1.5290226596475165,0.3244440317876002
11.58400000100005,0.945159075303273,-0.2003163846373494
11.592000116000008,0.0386724650949874,-0.684503544197838
11.600000288000047,0.9193270771343557,-0.4918939160065578
11.608000384999968,0.6742000457770656,-0.10867487462492785
11.616000388999964,1.0806134126802471,-0.028594349215496927
11.624000023999997,1.1419455252918287,-0.02014874230905498
11.632000268999946,0.8483772030212863,0.05864694677761366
11.640000106999992,1.4161272602426183,0.06928006855707954
11.64800009299995,0.8193224994277866,0.03779184267525803
11.656000244999973,1.2387273975738156,0.06427238000193998
11.664000157000032,1.1967818722819865,0.10995254619543726
11.67200023600003,0.9709407186999313,0.12777751467981405
11.68000022199999,1.4193499656672006,0.0991188921556457
11.688000355999975,0.8258182650492103,0.024945368457629062
11.696000027999958,1.1419455252918287,-0.013087641657791868
11.70400005099998,1.1419455252918287,0.028758297870393475
11.712000239999952,0.8935454337376975,0.07970834323090341
11.720000245000051,1.4225726710917828,0.06978385596540285
11.728000286999986,0.8225452048523689,0.04160061640905151
11.736000290999982,1.1838406958113985,0.0341530211959365
11.744000035999989,1.1612817578393224,0.010481101832013586
11.75200031899999,0.8096543831540398,0.039994553627635335
11.760000322999986,1.5129091325246051,0.13779615150738667
11.768000346000008,0.9419363698786907,0.1488673577871494
11.776000055000054,1.2193408102540628,0.08489350812664573
11.784000115000026,1.1871137560082399,0.0518402000112103
11.792000138000049,0.8548226138704509,0.029124696869097987
11.800000308999984,1.3419546807049667,0.026133192335199687
11.808000239999956,0.8903227283131151,0.07010518748486336
11.816000039999949,1.2193408102540628,0.07348255916840897
11.824000340999987,1.125781643396658,0.0017298629167091639
11.832000309000023,0.767708857862211,-0.03434420296961234
11.840000294999982,1.3741817349507897,-0.009670629781237422
11.848000169999978,0.7419272144655528,0.005401060848617974
11.85600015600005,1.212895399404898,-0.004603025627145419
11.864000067999996,1.0419409475852597,-0.039185548069140076
11.872000369000034,0.7548180361638819,-0.06912775549726566
11.880000021,1.312899977111467,-0.06232723572400907
11.888000229999989,0.7032043945983063,-0.039427692180123
11.896000307999998,1.1871137560082399,-0.024794089095502646
11.904000034999967,1.067722590981918,-0.025726271327929436
11.912000336000006,0.7903181506065461,-0.01372441897328186
11.920000155000025,1.4193499656672006,0.01510563122512141
11.928000122999947,0.7290363927672235,0.013508252117032542
11.936000313000022,1.1871137560082399,-0.03873091657739053
11.944000002000053,1.0193316548409246,-0.08651899349478949
11.952000136000038,0.7258136873426413,-0.04485879045996327
11.960000011000034,1.4548500801098647,0.01282607994447592
11.968000052999969,0.6870908674753948,-0.00728681319268832
11.97600020599998,1.2193408102540628,-0.01782459314620112
11.98400006199995,1.0644998855573358,-0.009610946707807535
11.992000029999986,0.8290409704737925,-0.027872242391711644
12.000000015999944,1.2935637445639734,-0.012724342696480003
12.008000167999967,0.8515999084458686,0.011494427022535359
12.016000172999952,1.112890821698329,-0.013887110939697578
12.024000363000027,1.122558937972076,-0.020141546566114034
12.03200016400001,0.8322636758983748,0.02763303325624671
12.040000297999995,1.4129045548180361,0.042776642616119985
12.048000098999978,0.7903181506065461,0.0194696260518461
12.056000011000037,1.190336461432822,0.01618002895272152
12.064000181999972,1.1516136415655756,0.014305573111494906
12.072000075000005,0.8225452048523689,0.04184112901609836
12.08000007999999,1.477409018081941,0.08016890117381371
12.088000158,0.7548180361638819,0.0016910248391885981
12.096000256000025,1.077390707255665,-0.11966379897300919
12.104000018999955,0.9871046005951017,-0.10751609972652766
12.112000061000003,0.8096543831540398,-0.02553669443522151
12.120000065999989,1.3386816205081253,-0.018248545849101978
12.12800031100005,0.7322590981918059,-0.038305868419174695
12.136000351999996,1.1483909361409934,-0.0331538146855895
12.144000320000032,1.0741680018310824,-0.060708038190331916
12.152000287999954,0.7064271000228884,-0.06737835195632305
12.160000236999963,1.390295262073701,-0.01709735892410347
12.168000036999956,0.767708857862211,0.012744508629526578
12.176000153000018,1.1967818722819865,0.018678152580243565
12.184000268999966,1.0967772945754177,-0.01573252051692576
12.192000181000026,0.845154497596704,-0.00300859993057445
12.200000389000024,1.5484092469672694,0.23703820831692085
12.208000079000044,1.1806179903868161,0.3764402366478492
12.216000009000027,1.1516136415655756,-0.05601429918828599
12.224000088000025,0.45158159761959255,-0.602490959863082
12.232000092000021,0.3322407873655298,-0.5171739223290571
12.240000355999996,1.312899977111467,-0.07972991139969399
12.248000008999952,0.777427328908217,0.08098132887053168
12.25600027300004,1.3096772716868847,0.0338869805207556
12.264000239999973,1.067722590981918,0.041417497409141246
12.272000114999969,0.9644953078507668,0.0846419050831338
12.280000286000018,1.435463492790112,0.10231094560614504
12.288000161000014,0.877431906614786,0.10987203232759618
12.296000110000023,1.3419546807049667,0.12512387348074092
12.304000337000048,1.190336461432822,0.12194396499860517
12.312000359999956,0.9193270771343557,0.08144029723975271
12.320000217000029,1.4322407873655298,0.04796007287792428
12.328000128999975,0.799986266880293,0.0845328768785027
12.336000077999984,1.3484000915541312,0.10524372595638563
12.344000064000056,1.090331883726253,0.011249267659054648
12.352000327000042,0.8064316777294576,-0.003280462513383064
12.36000022099995,1.5290226596475165,0.1423858592959724
12.368000058999996,0.9548271915770199,0.20339657529568017
12.376000156000032,1.3580682078278783,0.15419159399685275
12.384000345999993,1.190336461432822,0.1248121222417451
12.39200022099999,0.9612726024261845,0.07876092404413018
12.400000040000009,1.3580682078278783,0.05438281369334344
12.408000341000047,0.8967681391622796,0.11108420565451832
12.41600014200003,1.30323186083772,0.09104710714729869
12.424000146000026,1.067722590981918,-0.005901753734724296
12.432000021000022,0.8354863813229572,0.029055667107605876
12.440000062999957,1.5064637216754404,0.08582793423773934
12.448000104000016,0.7290363927672235,0.026662685642983543
12.456000257000028,1.2193408102540628,0.009041162808249804
12.464000262000013,1.1419455252918287,0.016136810676857894
12.472000340000022,0.7548180361638819,-0.02284341933815492
12.480000325999981,1.3741817349507897,-0.010512097389985991
12.48800023800004,0.7387045090409705,-0.02283373909941283
12.49600000199996,1.0741680018310824,-0.11884511075293472
12.504000227999995,0.9516044861524375,-0.12564408481958764
12.512000306999994,0.7838727397573815,-0.05666065791222977
12.520000256000003,1.2870679789425499,-0.07732706239235543
12.528000334000012,0.6515907530327306,-0.08159342058277724
12.536000338999997,1.2032272831311512,-0.007365835563006415
12.54400000999999,1.077390707255665,-0.03692621390297425
12.552000328999952,0.6742000457770656,-0.0872036351540223
12.560000371000001,1.4193499656672006,-0.006184213544952985
12.568000282999947,0.7451499198901349,0.03144782174036331
12.576000213000043,1.1741725795376516,-0.043341130096922
12.584000033000052,0.9806591897459372,-0.0842130155388325
12.592000296000037,0.8064316777294576,-0.05474573556878189
12.60000000499997,1.30323186083772,-0.00576897312861057
12.608000102000005,0.8258182650492103,0.025485699976028946
12.616000254000028,1.1677271686884871,0.003688749993278755
12.62400009199996,1.0838864728770885,-0.02421592486682519
12.632000152000046,0.8225452048523689,0.022177777577464867
12.640000101000055,1.409681849393454,0.03257270964654108
12.64800027199999,0.6806454566262302,-0.06668770932703716
12.656000276999976,1.0935545891508354,-0.0926691769475314
12.664000225999985,1.090331883726253,-0.005357531369448276
12.672000045000004,0.8644907301441976,0.043751003393190116
12.68000027200003,1.409681849393454,0.05967496816844073
12.688000072000023,0.8515999084458686,0.10147875052125822
12.696000261999984,1.312899977111467,0.09557592924456121
12.704000081000004,1.067722590981918,0.021577439745849372
12.712000123000053,0.8483772030212863,-0.005496803383591
12.720000349999964,1.3580682078278783,0.019714156389504273
12.728000038999994,0.7548180361638819,-0.0007366163576522163
12.736000173999969,1.1161135271229115,-0.07297658244054334
12.744000215000028,0.9871046005951017,-0.11303224728358656
12.752000107999947,0.7451499198901349,-0.04253810128800041
12.760000039000033,1.4193499656672006,0.03572033226648905
12.768000079999979,0.7387045090409705,-0.00601312740274063
12.776000270000054,1.112890821698329,-0.06072431306818794
12.78400008899996,1.0387182421606773,-0.06574293663246604
12.792000297999948,0.7387045090409705,-0.07294171352583638
12.800000060999992,1.3096772716868847,-0.03667292066026806
12.80800036200003,0.7742046234836347,0.02569148916938873
12.816000254999949,1.2741771572442206,0.05785275105908577
12.824000296999998,1.2354543373769742,0.1858197709187866
12.832000171999994,1.125781643396658,0.3080935582713232
12.840000213000053,1.3709590295262073,-0.021487250585838016
12.848000144000025,0.11611810482948041,-0.5875094579691501
12.856000167000047,0.5870862897688258,-0.6192504810401354
12.86400013399998,0.86771343556878,-0.2170098706840425
12.872000361000005,0.8128770885786221,-0.011249454150442095
12.880000068999948,1.3484000915541312,0.025506065840499692
12.888000203000047,0.8741588464179446,0.10487998994740054
12.896000355999945,1.2967864499885557,0.09227786817198119
12.904000304999954,1.058054474708171,0.01979531217801331
12.91200030899995,0.8935454337376975,0.054004365858711594
12.920000240000036,1.4516273746852826,0.07957165698591084
12.928000225999995,0.7451499198901349,0.04751872992225315
12.936000340999954,1.2903410391393912,0.06880496778980548
12.944000253000013,1.1677271686884871,0.07338980933270517
12.952000109999972,0.8032089723048752,0.04765838166174001
12.960000151000031,1.4838544289311055,0.06812542429241755
12.96800035900003,0.7838727397573815,0.07343348071996954
12.976000290000002,1.2354543373769742,0.04905056967850016
12.984000071999958,1.1355001144426642,0.03954774984304109
12.992000243000007,0.8580453192950331,0.052437235711701245
13.000000247999992,1.4257953765163653,0.09155676599198838
13.008000289000051,0.8935454337376975,0.11595963342139548
13.01600001600002,1.2580636301213093,0.10076591592469726
13.024000243000046,1.1871137560082399,0.09492051681132191
13.032000192000055,0.9193270771343557,0.11074705369973326
13.04000032600004,1.445181963836118,0.09172143046462128
13.048000348999949,0.7903181506065461,0.05310245598977578
13.056000057000006,1.222563515678645,0.03076188430977667
13.064000339000017,1.0612771801327536,-0.01880752180868929
13.072000084000024,0.7548180361638819,-0.042534712077673786
13.080000237000036,1.3806271457999542,0.0044064241143530105
13.088000259999944,0.667704280155642,-0.02871186155509744
13.096000116000027,1.0935545891508354,-0.17019441238687325
13.104000176,0.767708857862211,-0.20585016146014673
13.112000291999948,0.8225452048523689,-0.0893613285322017
13.120000093000044,1.2419501029983977,-0.03578819187284345
13.128000042000053,0.6967589837491417,-0.08096793712180074
13.136000028000012,1.1032227054245822,-0.07231927692392673
13.144000051000035,1.045163653009842,-0.0316334335804339
13.152000074000057,0.7903181506065461,-0.018495881702947862
13.160000299999979,1.367736324101625,0.01271062171978392
13.168000045999975,0.777427328908217,0.04710572227826978
13.17600036500005,1.212895399404898,0.010061399107748323
13.184000331999982,0.9741634241245135,-0.08145634489451099
13.192000300000018,0.7419272144655528,-0.08561597733631827
13.200000211999964,1.3484000915541312,0.01112719922206506
13.208000363999986,0.777427328908217,0.03621575401310681
13.216000073000032,1.1773952849622338,-0.025953889665332595
13.224000225000054,1.022554360265507,-0.023226387562637126
13.23200017399995,0.8515999084458686,0.023973248451025532
13.240000290000012,1.3290135042343785,-0.031476209727531054
13.24800027599997,0.5967544060425726,-0.10825723733273233
13.25600018800003,1.1419455252918287,-0.0786196370287259
13.264000322000015,1.0064408331425954,-0.05392956644975686
13.272000103999972,0.7612634470130464,-0.041274987876791326
13.280000367999946,1.4161272602426183,0.05180767437856512
13.288000150000016,0.8193224994277866,0.09923332356980659
13.296000229000015,1.254840924696727,0.03601215067531801
13.304000158999997,1.0354955367360952,0.009488860112986762
13.31200008999997,0.8999908445868618,0.04623136514729454
13.32000000100004,1.367736324101625,0.0346686169160691
13.328000172999964,0.7128725108720531,-0.005641147767120408
13.336000195999986,1.190336461432822,-0.03757027936780466
13.344000348000009,0.9257724879835203,-0.11218654572422919
13.352000019000002,0.6774227512016479,-0.1434338895832483
13.360000098,1.2903410391393912,-0.07210161495626831
13.368000325000025,0.6742000457770656,-0.03088900349000568
13.376000125000019,1.190336461432822,-0.05075755610532185
13.384000166999954,0.9387136644541084,-0.06190341361455223
13.392000301000053,0.799986266880293,-0.08328172545425744
13.400000083000009,1.1838406958113985,-0.11363474092197742
13.408000124999944,0.6742000457770656,-0.08208178840632159
13.416000370000006,1.1612817578393224,-0.030819230932726482
13.424000208000052,1.0871091783016709,0.02058700387423146
13.432000083000048,1.0354955367360952,0.22326519578203588
13.440000105999957,1.7129182879377431,0.3844825343229858
13.448000202999992,0.877431906614786,0.08141191816500953
13.456000170000038,0.6612588693064775,-0.44464918973057754
13.464000285999987,0.5677500572213321,-0.5769201904391772
13.472000271999946,0.5031952391851683,-0.26382372261651027
13.480000258000018,1.4290180819409475,0.06238473589791351
13.488000168999974,0.8709361409933623,0.14380961467072695
13.496000321999986,1.30323186083772,0.09153590330898714
13.504000325999982,1.1161135271229115,0.08432963107803765
13.512000349000004,0.9806591897459372,0.1317462992494376
13.520000039000024,1.4838544289311055,0.1452675296777553
13.52800007999997,0.8193224994277866,0.11333861274972443
13.536000214999945,1.3322362096589608,0.0785362059805637
13.544000349000044,1.0644998855573358,0.05962767749978325
13.552000056999987,0.9096589608606088,0.06700965221198947
13.560000228000035,1.4257953765163653,0.056954952593300426
13.568000120999955,0.7160952162966353,0.038055991273365126
13.57600018100004,1.3419546807049667,0.07958870984621176
13.584000315000026,1.1161135271229115,0.10648255513160118
13.592000264000035,0.9032135500114442,0.05666265497089714
13.600000027999954,1.3580682078278783,0.01520664529089484
13.608000273000016,0.7548180361638819,0.03360244539850221
13.616000148000012,1.2838452735179673,0.06716391199515605
13.62400013399997,1.1290043488212407,0.07714512793099841
13.63200017500003,0.8999908445868618,0.09467903966673342
13.640000086999976,1.4935225452048524,0.10738005755524842
13.648000314,0.7451499198901349,0.0649974041763844
13.656000372999983,1.254840924696727,0.004330031597049782
13.664000230000056,1.0161089494163424,-0.01217974962924149
13.672000271000002,0.8419317921721218,0.0214559099273618
13.680000165000024,1.4032364385442893,0.02655736410264048
13.68800003900003,0.6548134584573129,-0.03251397036758109
13.696000118000029,1.1838406958113985,-0.06419018191848694
13.704000326000028,0.9838818951705195,-0.034849027002751526
13.712000145000047,0.8515999084458686,-4.351258749844995e-05
13.72000011299997,1.312899977111467,-0.00935390750567789
13.728000116999965,0.7032043945983063,-0.05617202378138066
13.736000120999961,1.0838864728770885,-0.08477773944700355
13.74400019999996,1.01288624399176,-0.08574006014998307
13.752000241000019,0.7160952162966353,-0.05829567847278301
13.760000023999964,1.4032364385442893,0.0034651777490560306
13.768000269000026,0.7258136873426413,0.0478401082215437
13.776000218000036,1.267731746395056,0.012365150848051107
13.78400038899997,0.9387136644541084,-0.0729402351634123
13.792000245000054,0.7903181506065461,-0.06663773363696415
13.800000008999973,1.3645136186770428,0.03908695491853318
13.808000254000035,0.8096543831540398,0.06988623724300443
13.816000276999944,1.2193408102540628,0.00539524142275016
13.824000133000027,1.0289997711146714,-0.004875434905709462
13.832000082000036,0.8935454337376975,0.05541828145094248
13.840000122999982,1.4193499656672006,0.05760740894443245
13.848000220000017,0.6903135728999771,0.006183445641232373
13.856000021,1.2806225680933851,0.011204040120010908
13.864000358999988,1.058054474708171,0.05568150570069903
13.872000233999984,0.9096589608606088,0.07044543760872418
13.880000127000017,1.4322407873655298,0.05208408387202959
13.888000242999965,0.7160952162966353,0.04964127233137409
13.896000284000024,1.322568093385214,0.05179497815098809
13.90400002900003,1.0193316548409246,0.0009383371221958229
13.912000163000016,0.8322636758983748,0.006276140077488987
13.920000316000028,1.4870771343556877,0.12179302344577893
13.928000301999987,0.8741588464179446,0.15828814091581542
13.936000121000006,1.2580636301213093,0.048894640979054674
13.944000050999989,1.01288624399176,-0.05185263157256366
13.952000314999964,0.7548180361638819,-0.047684390066230424
13.960000263999973,1.3612909132524604,-0.020523307149260914
13.968000064999956,0.6483680476081483,-0.03800347039416083
13.976000032000002,1.2290089265278095,-0.03501552948275578
13.984000091999974,0.9773861295490959,-0.005367203185470714
13.992000004000033,0.8935454337376975,-0.010034436718287822
14.000000248999982,1.2580636301213093,-0.02320519431442298
14.008000123999977,0.7644861524376287,-0.0030578222307123763
14.01600018399995,1.2032272831311512,-0.001355241655762633
14.024000187999945,0.999995422293431,-0.03725359839588509
14.032000136999955,0.8128770885786221,-0.02772365417729971
14.04000023399999,1.367736324101625,0.022720333896704893
14.04800014600005,0.8290409704737925,0.10564224178788881
14.056000261000008,1.477409018081941,0.24924820213290408
14.064000136000004,1.2193408102540628,0.21377678680462534
14.07200026999999,0.7419272144655528,-0.167624356045352
14.08000008900001,0.7354818036163882,-0.5127334873014426
14.088000074999968,0.35479972533760584,-0.45456123987252517
14.096000135000054,0.9741634241245135,-0.1989825890440186
14.104000121000013,1.0064408331425954,-0.049342423737080914
14.112000089000048,0.8515999084458686,0.02697179650403092
14.120000204000007,1.467740901808194,0.09497926405622721
14.128000301000043,0.7935408560311283,0.11063695969799071
14.136000157000012,1.322568093385214,0.06320932854167215
14.144000366,1.0354955367360952,0.013612593753505944
14.15200009199998,0.8999908445868618,0.0695675764953137
14.160000115000003,1.5161318379491875,0.15931606226413272
14.168000026999948,0.845154497596704,0.11292283336534595
14.176000327999986,1.1806179903868161,-0.008113207677331515
14.184000240000046,1.0032181277180132,-0.07402332937829033
14.192000132999965,0.767708857862211,-0.051286664661853235
14.200000284999987,1.3580682078278783,0.025304621269389357
14.20800030800001,0.799986266880293,0.04793800116631562
14.216000276000045,1.2290089265278095,0.01793278208425949
14.224000242999978,1.0644998855573358,0.052719703791739916
14.232000340000013,0.999995422293431,0.10899677225438212
14.240000251999959,1.3548455024032957,0.059084475752877834
14.248000329999968,0.7419272144655528,-0.00487760746242122
14.256000298000004,1.267731746395056,0.037656297230141404
14.264000283999962,1.1,0.08810540688007965
14.272000140000046,0.945159075303273,0.08008129643674472
14.280000200000018,1.3935683222705424,0.05938791351848431
14.28800013,0.7354818036163882,0.027310855183759183
14.296000283000012,1.254840924696727,-0.012533281579789632
14.304000380000048,0.9709407186999313,-0.008028682769016481
14.31200031000003,0.9193270771343557,0.03308811777488249
14.32000007399995,1.3386816205081253,0.012463958116893893
14.328000151999959,0.667704280155642,-0.05142120370886446
14.336000194000007,1.15805905241474,-0.07684589097471459
14.344000069000003,0.9128816662851911,-0.11812469781564838
14.352000257999975,0.6999816891737239,-0.14340814701596344
14.360000355000011,1.2645090409704736,-0.0695504909013977
14.368000359999996,0.722590981918059,-0.02027041834480781
14.376000011999963,1.1290043488212407,-0.0796772896843869
14.384000016999948,0.9290455481803617,-0.11171011391655458
14.392000003000021,0.7967635614557106,-0.04734031639162978
14.400000043999967,1.322568093385214,-0.015322910415275564
14.408000270999992,0.6967589837491417,-0.04178030763595813
14.416000200999974,1.1677271686884871,-0.030102403608683256
14.42400007599997,1.0483863584344244,-0.022632184102790796
14.432000043000016,0.7709315632867934,-0.04189110368088351
14.440000028999975,1.335458915083543,-0.020142262009604183
14.448000107999974,0.7387045090409705,0.013983119487209154
14.456000149000033,1.2645090409704736,0.027040376059498973
14.464000338999995,1.0289997711146714,0.038123092462342294
14.47200034299999,0.9548271915770199,0.03822775956797231
14.480000181000037,1.2903410391393912,0.0231155830468254
14.488000166999996,0.7644861524376287,-0.010435760974156686
14.496000022999965,1.1290043488212407,-0.08323123031848578
14.504000194000014,0.945159075303273,-0.08701976084903786
14.512000328,0.9128816662851911,0.07568972770683964
14.520000368999945,1.5290226596475165,0.16950719563715846
14.528000281000004,0.7903181506065461,0.06134609733076185
14.536000304000027,1.1871137560082399,0.007228373777415434
14.54400023400001,1.190336461432822,0.07185339921250845
14.552000034999992,0.8515999084458686,0.09874393306136342
14.56000014999995,1.5096864271000228,0.09239239418392542
14.568000246999986,0.7580407415884641,0.08038574061489781
14.576000250999982,1.267731746395056,0.009021749264470606
14.584000089000028,0.9257724879835203,-0.08346454594615041
14.59200011200005,0.7903181506065461,-0.0807246979198083
14.600000116000047,1.2935637445639734,-0.020099736880093515
14.608000102000005,0.7419272144655528,-0.02033319976836947
14.616000144000054,1.145168230716411,-0.046128169419406596
14.624000352000053,1.0387182421606773,-0.026083600028788914
14.632000078000033,0.8160997940032044,-0.007941801504352638
14.640000009000005,1.3064545662623026,-0.05296559382198626
14.648000253999953,0.6354772259098191,-0.08299512813953763
14.656000331999962,1.1935591668574044,-0.038538823350710315
14.664000095999995,1.009663538567178,-0.013364849810312182
14.67200019300003,0.9548271915770199,0.07247759565355666
14.680000253000003,1.6032455939574273,0.3139364841647377
14.688000220000049,1.0709452964065003,0.30375015717384374
14.696000038999955,1.01288624399176,-0.22527318707616537
14.704000080000014,0.345131609063859,-0.6423513292636338
14.71200012199995,0.47419089036392764,-0.40928868511589034
14.720000329999948,1.3484000915541312,-0.00552742974146965
14.728000204999944,0.7742046234836347,0.08602155303776357
14.73600026500003,1.312899977111467,0.04997464039674569
14.744000157999949,1.0741680018310824,0.05094774373523751
14.752000014000032,0.9354909590295262,0.07805489920160931
14.760000148000017,1.4257953765163653,0.11615958645415209
14.768000262999976,0.8967681391622796,0.10089949474328412
14.776000046000036,1.24517280842298,0.08304244490132259
14.784000086999981,1.154836346990158,0.09699766569959793
14.792000073000054,0.9354909590295262,0.04375559957424881
14.800000243999989,1.267731746395056,0.0031107844541654883
14.808000025999945,0.8935454337376975,0.09472932097750854
14.816000067000004,1.3419546807049667,0.14150499826524468
14.824000090000027,1.1064454108491646,0.07070058022599288
14.832000243000039,0.9516044861524375,0.09463312141282922
14.840000377000024,1.4902998397802698,0.15202924783233862
14.848000066000054,0.799986266880293,0.051422571707841924
14.856000182000002,1.1483909361409934,-0.04751240912238897
14.864000149000049,1.077390707255665,0.0014698341316148299
14.872000319999984,0.9128816662851911,0.08951704227060152
14.88000032399998,1.467740901808194,0.11035401410948804
14.888000068999986,0.7644861524376287,0.04000899660115687
14.896000370000024,1.1773952849622338,-0.06543983779602043
14.90400028199997,0.9483817807278553,-0.07814764788407676
14.912000156999966,0.8419317921721218,0.00104168824631359
14.920000049999999,1.3967910276951248,0.007700319858429469
14.928000090999944,0.6160906385900664,-0.056776979631941414
14.936000225000043,1.1838406958113985,-0.08742391348609303
14.944000340999992,0.9257724879835203,-0.1153656731777451
14.952000344999988,0.7193179217212177,-0.09586453312463702
14.960000219999984,1.3548455024032957,-0.028739150736873994
14.96800009499998,0.6386999313344014,-0.08151761070991369
14.976000340000041,1.0483863584344244,-0.17574147877924592
14.984000121999998,0.9193270771343557,-0.1269685561481409
14.992000219000033,0.7806500343327992,-0.0724607205016962
15.00000012999999,1.1838406958113985,-0.16375387544976738
15.00800037600004,0.49030441748683906,-0.23251247199756758
15.016000064999957,1.077390707255665,-0.17045976273774036
15.024000272999956,0.8935454337376975,-0.13703788673615253
15.032000351999955,0.6903135728999771,-0.1573352894296634
15.040000263000024,1.2645090409704736,-0.10338317806232772
15.04800026800001,0.6999816891737239,0.0005917314255314676
15.056000327999982,1.3257907988097963,0.04744590512471519
15.064000053999962,1.022554360265507,0.02856929092719868
15.07200022500001,0.8967681391622796,0.015098236931718703
15.08000030400001,1.3709590295262073,0.017424479222959734
15.088000344999955,0.6806454566262302,-0.011553091700537784
15.096000146000051,1.2161181048294805,-0.0813682607756617
15.10400035400005,0.8419317921721218,-0.14108160147408572
15.112000228000056,0.7548180361638819,-0.12075658773701542
15.120000307000055,1.3193453879606316,-0.05366087841525055
15.12800038499995,0.6612588693064775,-0.02037730929034166
15.136000129999957,1.2290089265278095,-0.05077438334244137
15.144000264000056,0.9387136644541084,-0.09509256747599135
15.152000065000038,0.8128770885786221,-0.0042876610118535345
15.160000069000034,1.5645227740901808,0.15858402539797165
15.168000054999993,0.8419317921721218,0.15205893159882033
15.176000373999955,1.2935637445639734,0.03804318762586027
15.184000137999988,1.045163653009842,0.008646104630919239
15.192000291,0.8709361409933623,0.018093227743935125
15.200000220999982,1.3257907988097963,-0.02794985643349939
15.208000076999951,0.667704280155642,-0.06459868800584544
15.216000267000027,1.1741725795376516,-0.055772599175391506
15.224000141000033,0.9838818951705195,-0.07470047475196687
15.232000237999955,0.7612634470130464,-0.06765380578583224
15.24000020599999,1.409681849393454,0.032063875800880756
15.248000099000024,0.8096543831540398,0.10284255380173729
15.256000084999982,1.3386816205081253,0.06552461710882498
15.264000256000031,0.9967727168688487,0.00841437612733134
15.272000316000003,0.9387136644541084,0.023322120555676545
15.28000006100001,1.3838498512245363,0.07746072734752493
15.288000028000056,0.8580453192950331,0.12420650867299698
15.296000014000015,1.545136186770428,0.24379444961309946
15.304000332999976,1.3161226825360492,0.38909650527710604
15.312000319000049,1.1677271686884871,0.2041419951996662
15.320000137999955,0.9741634241245135,-0.33295168390386093
15.328000179000014,0.15156786449988555,-0.5558325730099705
15.33600034999995,1.0419409475852597,-0.24204804592749432
15.344000187999995,1.022554360265507,-0.004441078485153904
15.352000155000042,0.8354863813229572,0.0027973199519546153
15.36000004899995,1.4935225452048524,0.1169545563326745
15.368000052999946,0.9709407186999313,0.24210845290914684
15.376000001999955,1.435463492790112,0.19806319944042186
15.384000340000057,1.1355001144426642,0.11786361645473208
15.39200008499995,1.01288624399176,0.10503758618954276
15.400000162999959,1.4386861982146943,0.14373133359405896
15.408000149000031,0.9516044861524375,0.1913080953944423
15.416000209000003,1.4193499656672006,0.16411747874812802
15.424000213,1.1,0.10282345109239843
15.432000384000048,1.0354955367360952,0.1453409255165739
15.440000202999954,1.545136186770428,0.19794045783771555
15.448000208000053,0.8483772030212863,0.1396743641167748
15.456000138000036,1.3709590295262073,0.09109727187860267
15.464000216000045,1.1,0.10870137727571227
15.47200025799998,1.0257770656900893,0.12688454564172044
15.48000024299995,1.4709636072327763,0.13948613908042926
15.488000174000035,0.8354863813229572,0.12420484880420912
15.49600034499997,1.3516227969787136,0.048710238164409746
15.504000034,0.9773861295490959,0.020820562077028145
15.512000297999975,1.0354955367360952,0.11828143336687919
15.520000061000019,1.500018310826276,0.1673677330394044
15.528000362000057,0.8064316777294576,0.08870580395075434
15.536000144000013,1.2870679789425499,0.028067062803674696
15.544000203999985,1.0354955367360952,0.00577262752754544
15.552000300000032,0.8483772030212863,-0.0051597054938218746
15.56000015699999,1.3741817349507897,0.022716697084261415
15.568000215999973,0.777427328908217,0.037954709046834824
15.576000258000022,1.225786221103227,-0.002042206629829268
15.584000094999965,0.9806591897459372,-0.056953626172916286
15.59200032199999,0.8193224994277866,-0.056655469306844085
15.600000160000036,1.30323186083772,-0.005910261125904995
15.608000126999968,0.7935408560311283,0.011511812495484476
15.61600014999999,1.1741725795376516,-0.018824320038599785
15.62400032100004,1.032272831311513,-0.03637700639530111
15.632000306000009,0.8032089723048752,-0.026296221926189293
15.640000144000055,1.3516227969787136,-0.03229868565066358
15.648000333000027,0.6386999313344014,-0.04063672438757054
15.656000059999997,1.2838452735179673,-0.018887360983616857
15.664000045999956,0.9709407186999313,0.0016020144134763145
15.672000106000041,0.9483817807278553,0.03873833017372996
15.680000165000024,1.4032364385442893,0.08431996327579876
15.68800017000001,0.7612634470130464,0.03684830112572911
15.696000025999979,1.212895399404898,-0.07041860150242382
15.704000159999964,0.8838773174639505,-0.07847750215005303
15.712000146000037,0.9161043717097733,-0.0073185050299185254
15.720000020000043,1.2806225680933851,-0.03048715128488806
15.728000024000039,0.62258640421149,-0.11032683441270161
15.736000214,1.122558937972076,-0.12432045688711843
15.74400038500005,0.8838773174639505,-0.14723959012846266
15.752000092999992,0.6806454566262302,-0.16667812018552003
15.760000355999978,1.2773998626688028,-0.07959544877673061
15.768000064000034,0.7451499198901349,0.026115898192146093
15.776000346000046,1.2903410391393912,0.033324717153724
15.784000295000055,0.9612726024261845,-0.027498899441233682
15.792000151000025,0.8806546120393682,-0.04284492452375052
15.800000136999984,1.2773998626688028,0.004011809274475603
15.808000344999982,0.7419272144655528,-0.024391673151926533
15.816000368000005,1.122558937972076,-0.1442709004301136
15.82400033500005,0.7580407415884641,-0.17710043809858317
15.83200022799997,0.8644907301441976,-0.10510240874018717
15.840000121999992,1.1967818722819865,-0.07733566190500782
15.848000070000012,0.6419226367589836,-0.0805771382889636
15.856000333999987,1.2096726939803157,-0.08875485715402966
15.864000207999993,0.8258182650492103,-0.13441048386470877
15.872000267999965,0.7903181506065461,-0.1037681773884782
15.880000365,1.30323186083772,-0.03466045826415499
15.88800022099997,0.6290318150606546,-0.09001024262968947
15.896000337000032,1.090331883726253,-0.15601187652986429
15.904000118999988,0.8999908445868618,-0.11014828882634267
15.912000086000035,0.9096589608606088,0.025312820882339167
15.920000368000046,1.567745479514763,0.24351894786389403
15.928000169000029,0.9935500114442664,0.29612518636481494
15.936000117000049,1.190336461432822,-0.1318577261785652
15.944000139999957,0.26773632410162507,-0.6557977255911993
15.952000330000033,0.3096818493934539,-0.6061352329362316
15.96000001899995,1.1871137560082399,-0.1632481075480667
15.968000209000024,0.7548180361638819,0.0867635960434051
15.976000305999946,1.3935683222705424,0.09035159595209916
15.984038716999976,1.022554360265507,0.04783455820413668
15.992000146999999,0.9225497825589379,0.040665785988098245
16.000000003999958,1.3967910276951248,0.06185154738533169
16.008000138000057,0.7806500343327992,0.06768705212816181
16.01600023399999,1.3290135042343785,0.06456380505827677
16.024000015999945,1.0644998855573358,0.08498627893763426
16.032000280000034,1.0387182421606773,0.12991196371304442
16.040000043999953,1.4484046692607004,0.15818029774055764
16.048000065999986,0.8967681391622796,0.1428636405170365
16.05600029300001,1.3484000915541312,0.11149985223934117
16.064000316000033,1.077390707255665,0.08998979311869948
16.072000172000003,1.01288624399176,0.09683828385552837
16.08000034300005,1.3774044403753718,0.10545143903805074
16.08800010599998,0.8419317921721218,0.07194233310209253
16.09600027700003,1.2741771572442206,0.042487980892340044
16.104000022000037,1.032272831311513,0.05541114018271481
16.112000007999995,0.9773861295490959,0.04847854535694923
16.12000001199999,1.2806225680933851,0.012110636685829259
16.12800031300003,0.8128770885786221,0.04769758702468675
16.136000169,1.312899977111467,0.09586098797881318
16.144000209999945,1.0483863584344244,0.018414620637177866
16.152000122000004,0.8290409704737925,-0.01804440328118647
16.160000200000013,1.4386861982146943,0.09732244124327828
16.168000185999972,0.8354863813229572,0.11990373831609626
16.176000319999957,1.2483955138475622,-0.015290480497495838
16.184000121000054,0.8741588464179446,-0.08093955142287132
16.192000051000036,0.9064362554360265,-0.035159215128871525
16.20000014799996,1.24517280842298,-0.017130875595778652
16.20800029999998,0.7193179217212177,-0.034668154159175554
16.21600021200004,1.1838406958113985,-0.06445071299590957
16.224000142000023,0.8483772030212863,-0.12723227026943695
16.23200025799997,0.777427328908217,-0.1305286367727546
16.240000002999977,1.2193408102540628,-0.06566507920985135
16.24800028499999,0.6903135728999771,-0.06988942688206501
16.256000252000035,1.0935545891508354,-0.1247842044765987
16.26400016399998,0.8999908445868618,-0.10263303348838584
16.272000131000027,0.9064362554360265,0.00917319008321638
16.280000171999973,1.3709590295262073,0.08511156259410062
16.288000176999958,0.7644861524376287,0.017018703019166418
16.296000180999954,1.145168230716411,-0.10575121366856223
16.304000315000053,0.86771343556878,-0.0938992123809279
16.31200000399997,0.9548271915770199,0.0363759869239734
16.32000037900002,1.3741817349507897,0.07657297871799162
16.328000124000027,0.7096498054474707,-0.008049366633507228
16.336000294999963,1.1677271686884871,-0.09126878025937708
16.34400013200002,0.8935454337376975,-0.10624291076371253
16.35200002600004,0.8290409704737925,-0.014543521477079314
16.36000023400004,1.4516273746852826,0.0807251525508863
16.368000144999996,0.7128725108720531,0.041950237337907176
16.376000019999992,1.2903410391393912,0.006243262558923605
16.384000172000015,1.0806134126802471,0.10858556408019908
16.392000121000024,1.077390707255665,0.19766854152498872
16.400000070000033,1.4806317235065232,0.13806316182978814
16.408000093000055,0.7193179217212177,0.04548224562800804
16.41600009700005,1.3000091554131379,0.0027932040143280154
16.42400037899995,0.8999908445868618,-0.06334917985687541
16.432000142999982,0.767708857862211,-0.10909680259015672
16.44000018400004,1.2806225680933851,-0.05912319438569016
16.448000318000027,0.7160952162966353,0.018583883690699604
16.456000099999983,1.2903410391393912,0.033933069541430584
16.46400019700002,0.9773861295490959,-0.019469009576983522
16.472000311999977,0.8580453192950331,-0.014544722526045694
16.480000335,1.3935683222705424,0.08298831583241112
16.488000172000056,0.8193224994277866,0.08330831888411885
16.49600010200004,1.1935591668574044,-0.04680219401570532
16.504000124999948,0.8806546120393682,-0.09924849444398792
16.51200024000002,0.8999908445868618,0.008432654857595576
16.520000021999977,1.5290226596475165,0.19635024132628595
16.528000249,0.9871046005951017,0.32180173983535765
16.536000142000034,1.390295262073701,0.07984063464888563
16.544000220000044,0.47096818493934534,-0.49472844249865444
16.55200013199999,0.16450904097047378,-0.6874051337171908
16.56000021,1.112890821698329,-0.2513526822005051
16.568000343999984,0.8258182650492103,0.13996010144864177
16.576000108000017,1.3967910276951248,0.1304684728295702
16.584000167,1.0064408331425954,0.04254617626650992
16.592000300999985,1.0289997711146714,0.10190178067424813
16.60000026800003,1.4484046692607004,0.19288298545305707
16.608000069000013,0.9419363698786907,0.17444733103758683
16.616000018000022,1.3193453879606316,0.08535250746776013
16.624000374000047,1.0419409475852597,0.07192273478990992
16.63200017400004,1.0612771801327536,0.1536529155718614
16.64000006699996,1.4870771343556877,0.17840501046496593
16.64800021999997,0.799986266880293,0.10842685032674104
16.656000093999978,1.345177386129549,0.043069433447905994
16.664000265000027,0.945159075303273,0.013452160145766832
16.672000157999946,0.9483817807278553,0.03184336622315903
16.68000001400003,1.3967910276951248,0.08272950331753243
16.688000314999954,0.777427328908217,0.09463179294768506
16.696000337999976,1.3645136186770428,0.05233857300961581
16.704000211999983,0.9354909590295262,0.016122275383071486
16.71200038300003,0.9612726024261845,0.03118692211397256
16.720000239,1.3419546807049667,0.044806954720997355
16.72800035399996,0.7354818036163882,0.02426645341382378
16.73600013600003,1.254840924696727,-0.011192618668747375
16.744000215000028,0.9096589608606088,-0.06334959345171182
16.752000385999963,0.8612680247196154,-0.03391255580495543
16.760000038000044,1.3870725566491187,0.09321039771261157
16.768000004999976,0.8419317921721218,0.10114906733300556
16.77600019500005,1.2064499885557336,-0.04020403646146346
16.78400005100002,0.8644907301441976,-0.09415506921798882
16.792000277000056,0.9096589608606088,-0.01866879893904716
16.800000040999976,1.2773998626688028,0.0008900094362823217
16.80800015600005,0.667704280155642,-0.0625357480719929
16.81600012299998,1.1516136415655756,-0.10988828718295472
16.824000146000003,0.8580453192950331,-0.11239351726303605
16.832000075999986,0.8322636758983748,-0.05432008663052456
16.84000007999998,1.3257907988097963,0.0032070022466672305
16.848000177000017,0.6903135728999771,-0.017451292250078267
16.856000052000013,1.1967818722819865,-0.05946178392650008
16.864000315,0.9225497825589379,-0.061459460122580356
16.872000023000055,0.8871000228885328,-0.0008585150427785748
16.880000174999964,1.3870725566491187,0.08454998550454156
16.88800010600005,0.7967635614557106,0.06829480676588937
16.896000275999995,1.212895399404898,-0.04296893669253422
16.90400028099998,0.8999908445868618,-0.06597597673105321
16.91200032200004,0.9257724879835203,0.024811206811824235
16.920000103999996,1.3548455024032957,0.042251326917400765
16.928000089999955,0.6870908674753948,-0.021629202596243166
16.936000111999988,1.200004577706569,-0.05558113972629258
16.944000154000037,0.8935454337376975,-0.10120517662600924
16.952000268999996,0.7709315632867934,-0.10251805817851628
16.960000310000055,1.3193453879606316,0.013603378825265806
16.968000111000038,0.8064316777294576,0.060467894255526504
16.976000262999946,1.200004577706569,-0.027368016056773414
